mDM_(MeV)	D1	D2	D3	D4	D5	D6	D7	D8	D9	D10	const
1.00000e+04	3.16602e+39	1.55430e+32	2.86792e+39	1.47941e+32	3.71721e+50	1.00183e+51	3.37178e+50	1.10546e+51	4.44124e+51	4.02673e+51	7.15166e+23
1.25893e+04	2.51526e+39	7.79238e+31	2.27846e+39	7.41699e+31	2.95285e+50	7.95889e+50	2.67845e+50	8.78208e+50	3.52813e+51	3.19885e+51	4.51239e+23
1.58489e+04	1.99819e+39	3.90642e+31	1.81009e+39	3.71825e+31	2.34564e+50	6.32264e+50	2.12767e+50	6.97655e+50	2.80270e+51	2.54113e+51	2.84713e+23
1.99526e+04	1.58738e+39	1.95823e+31	1.43796e+39	1.86392e+31	1.86328e+50	5.02267e+50	1.69013e+50	5.54211e+50	2.22639e+51	2.01861e+51	1.79642e+23
2.51189e+04	1.26100e+39	9.81596e+30	1.14231e+39	9.34321e+30	1.48010e+50	3.98992e+50	1.34256e+50	4.40253e+50	1.76856e+51	1.60352e+51	1.13346e+23
3.16228e+04	1.00171e+39	4.92025e+30	9.07432e+38	4.68330e+30	1.17571e+50	3.16947e+50	1.06646e+50	3.49723e+50	1.40487e+51	1.27377e+51	7.15166e+22
3.98107e+04	7.95730e+38	2.46621e+30	7.20838e+38	2.34745e+30	9.33917e+49	2.51771e+50	8.47134e+49	2.77806e+50	1.11596e+51	1.01182e+51	4.51239e+22
5.01187e+04	6.32096e+38	1.23613e+30	5.72606e+38	1.17660e+30	7.41848e+49	1.99995e+50	6.72913e+49	2.20676e+50	8.86461e+50	8.03738e+50	2.84713e+22
6.30957e+04	5.02108e+38	6.19571e+29	4.54853e+38	5.89737e+29	5.89277e+49	1.58866e+50	5.34520e+49	1.75294e+50	7.04154e+50	6.38444e+50	1.79642e+22
7.94328e+04	3.98848e+38	3.10537e+29	3.61312e+38	2.95584e+29	4.68084e+49	1.26195e+50	4.24588e+49	1.39243e+50	5.59337e+50	5.07142e+50	1.13346e+22
1.00000e+05	3.16823e+38	1.55643e+29	2.87007e+38	1.48149e+29	3.71815e+49	1.00242e+50	3.37265e+49	1.10607e+50	4.44302e+50	4.02842e+50	7.15166e+21
1.25893e+05	2.51665e+38	7.80088e+28	2.27981e+38	7.42527e+28	2.95345e+49	7.96258e+49	2.67900e+49	8.78591e+49	3.52925e+50	3.19992e+50	4.51239e+21
1.58489e+05	1.99908e+38	3.90980e+28	1.81095e+38	3.72154e+28	2.34602e+49	6.32497e+49	2.12802e+49	6.97897e+49	2.80340e+50	2.54181e+50	2.84713e+21
1.99526e+05	1.58794e+38	1.95958e+28	1.43850e+38	1.86523e+28	1.86352e+49	5.02414e+49	1.69035e+49	5.54363e+49	2.22684e+50	2.01904e+50	1.79642e+21
2.51189e+05	1.26135e+38	9.82132e+27	1.14265e+38	9.34843e+27	1.48025e+49	3.99085e+49	1.34270e+49	4.40349e+49	1.76885e+50	1.60379e+50	1.13346e+21
3.16228e+05	1.00194e+38	4.92238e+27	9.07647e+37	4.68538e+27	1.17580e+49	3.17006e+49	1.06654e+49	3.49784e+49	1.40505e+50	1.27394e+50	7.15166e+20
3.98107e+05	7.95870e+37	2.46706e+27	7.20973e+37	2.34827e+27	9.33975e+48	2.51808e+49	8.47192e+48	2.77844e+49	1.11608e+50	1.01193e+50	4.51239e+20
5.01187e+05	6.32184e+37	1.23647e+27	5.72692e+37	1.17693e+27	7.41885e+48	2.00019e+49	6.72950e+48	2.20700e+49	8.86533e+49	8.03808e+49	2.84713e+20
6.30957e+05	5.02163e+37	6.19706e+26	4.54907e+37	5.89868e+26	5.89302e+48	1.58881e+49	5.34545e+48	1.75309e+49	7.04198e+49	6.38490e+49	1.79642e+20
7.94328e+05	3.98884e+37	3.10590e+26	3.61346e+37	2.95636e+26	4.68098e+48	1.26204e+49	4.24603e+48	1.39254e+49	5.59364e+49	5.07170e+49	1.13346e+20
1.00000e+06	3.16845e+37	1.55664e+26	2.87028e+37	1.48170e+26	3.71823e+48	1.00248e+49	3.37274e+48	1.10613e+49	4.44318e+49	4.02856e+49	7.15166e+19
1.25893e+06	2.51679e+37	7.80173e+25	2.27995e+37	7.42609e+25	2.95355e+48	7.96288e+48	2.67901e+48	8.78633e+48	3.52936e+49	3.19997e+49	4.51239e+19
1.58489e+06	1.99916e+37	3.91014e+25	1.81103e+37	3.72187e+25	2.34612e+48	6.32517e+48	2.12804e+48	6.97927e+48	2.80358e+49	2.54185e+49	2.84713e+19
1.99526e+06	1.58799e+37	1.95971e+25	1.43856e+37	1.86536e+25	1.86357e+48	5.02425e+48	1.69032e+48	5.54379e+48	2.22692e+49	2.01905e+49	1.79641e+19
2.51189e+06	1.26139e+37	9.82185e+24	1.14269e+37	9.34896e+24	1.48011e+48	3.99100e+48	1.34284e+48	4.40363e+48	1.76894e+49	1.60386e+49	1.13346e+19
3.16228e+06	1.00195e+37	4.92259e+24	9.07668e+36	4.68558e+24	1.17576e+48	3.16981e+48	1.06625e+48	3.49752e+48	1.40479e+49	1.27371e+49	7.15165e+18
3.98107e+06	7.95878e+36	2.46714e+24	7.20986e+36	2.34836e+24	9.34071e+47	2.51802e+48	8.47116e+47	2.77832e+48	1.11599e+49	1.01201e+49	4.51239e+18
5.01187e+06	6.32181e+36	1.23650e+24	5.72699e+36	1.17697e+24	7.42148e+47	2.00031e+48	6.72911e+47	2.20691e+48	8.86667e+48	8.03613e+48	2.84712e+18
6.30957e+06	5.02146e+36	6.19719e+23	4.54908e+36	5.89881e+23	5.88814e+47	1.58904e+48	5.34898e+47	1.75295e+48	7.04296e+48	6.38679e+48	1.79641e+18
7.94328e+06	3.98844e+36	3.10594e+23	3.61339e+36	2.95641e+23	4.67697e+47	1.26221e+48	4.24801e+47	1.39227e+48	5.59353e+48	5.07326e+48	1.13346e+18
1.00000e+07	3.16769e+36	1.55665e+23	2.87006e+36	1.48171e+23	3.71631e+47	1.00170e+48	3.36740e+47	1.10614e+48	4.43712e+48	4.02311e+48	7.15164e+17
1.25893e+07	2.51540e+36	7.80151e+22	2.27945e+36	7.42598e+22	2.94240e+47	7.96367e+47	2.68190e+47	8.78353e+47	3.52924e+48	3.20693e+48	4.51237e+17
1.58489e+07	1.99672e+36	3.90972e+22	1.80999e+36	3.72158e+22	2.33513e+47	6.32376e+47	2.12835e+47	6.97193e+47	2.80138e+48	2.54774e+48	2.84710e+17
1.99526e+07	1.58387e+36	1.95907e+22	1.43655e+36	1.86487e+22	1.84956e+47	5.01660e+47	1.68758e+47	5.53075e+47	2.21395e+48	2.01629e+48	1.79640e+17
2.51189e+07	1.25470e+36	9.81290e+21	1.13907e+36	9.34169e+21	1.45910e+47	3.97245e+47	1.33494e+47	4.36345e+47	1.75150e+48	1.60488e+48	1.13345e+17
3.16228e+07	9.91486e+35	4.91065e+21	9.01491e+35	4.67545e+21	1.14404e+47	3.13586e+47	1.04736e+47	3.44197e+47	1.37908e+48	1.25489e+48	7.15155e+16
3.98107e+07	7.80083e+35	2.45205e+21	7.10942e+35	2.33512e+21	8.97652e+46	2.47258e+47	8.20013e+46	2.70781e+47	1.08274e+48	9.99151e+47	4.51231e+16
5.01187e+07	6.09375e+35	1.21885e+21	5.57241e+35	1.16110e+21	7.20957e+46	1.89808e+47	5.99354e+46	2.13441e+47	8.37076e+47	7.23302e+47	2.84707e+16
6.30957e+07	4.70953e+35	6.00978e+20	4.32591e+35	5.72754e+20	5.52274e+46	1.47109e+47	4.64970e+46	1.65341e+47	6.48872e+47	5.95140e+47	1.79638e+16
7.94328e+07	3.58765e+35	2.92695e+20	3.31339e+35	2.79095e+20	3.96049e+46	1.16730e+47	3.99864e+46	1.24037e+47	5.32088e+47	4.91715e+47	1.13343e+16
1.00000e+08	2.68562e+35	1.40242e+20	2.49543e+35	1.33802e+20	3.00759e+46	8.84290e+46	2.86902e+46	9.67972e+46	3.49964e+47	3.59806e+47	7.15144e+15
1.25893e+08	1.97177e+35	6.59150e+19	1.84372e+35	6.29249e+19	2.20516e+46	6.51684e+46	2.10420e+46	7.11763e+46	2.58402e+47	2.64827e+47	4.51223e+15
1.58489e+08	1.41907e+35	3.03484e+19	1.33512e+35	2.89877e+19	1.61429e+46	4.74535e+46	1.55470e+46	4.64622e+46	1.84693e+47	1.88861e+47	2.84692e+15
1.99526e+08	1.00175e+35	1.36888e+19	9.47911e+34	1.30816e+19	9.00587e+45	3.15978e+46	8.49968e+45	3.02384e+46	1.11155e+47	1.15012e+47	1.79626e+15
2.51189e+08	6.94624e+34	6.05591e+18	6.60689e+34	5.78983e+18	6.84128e+45	2.25163e+46	6.42267e+45	2.14920e+46	8.14605e+46	8.33188e+46	1.13335e+15
3.16228e+08	4.74032e+34	2.63259e+18	4.52907e+34	2.51786e+18	3.65509e+45	1.36693e+46	3.42865e+45	1.28699e+46	4.52714e+46	4.68368e+46	7.15085e+14
3.98107e+08	3.19036e+34	1.12697e+18	3.05991e+34	1.07819e+18	2.10138e+45	8.75147e+45	1.79125e+45	6.94964e+45	3.31344e+46	3.18673e+46	4.51188e+14
5.01187e+08	2.12198e+34	4.76122e+17	2.04179e+34	4.55636e+17	6.69234e+45	1.26448e+46	6.54182e+45	1.10085e+46	6.86344e+46	6.88349e+46	2.84646e+14
6.30957e+08	1.39746e+34	1.98934e+17	1.34826e+34	1.90415e+17	-3.20406e+45	-1.41276e+45	-3.17448e+45	-2.77706e+45	-1.84726e+46	-1.76714e+46	1.79593e+14
7.94328e+08	9.12793e+33	8.23558e+16	8.82597e+33	7.88429e+16	7.56951e+44	1.94747e+45	8.01322e+44	9.81491e+44	1.33105e+46	1.43438e+46	1.13316e+14
1.00000e+09	5.92217e+33	3.38366e+16	5.73654e+33	3.23978e+16	2.16650e+45	3.25799e+45	2.13884e+45	2.62604e+45	2.36132e+46	2.39658e+46	7.14866e+13
