r[m]	M[Msun]	rho[g/cm^3]	P[N/m^2]	n_e[pm^-3]	n_p[pm^-3]	muF_e[MeV]	B
0.010000000000000005	1.1968013495607355e-39	2.5916080748809764e8	7.711657060788671e24	76.85494563750905	58.478926658803964	2.1344768325867824	0.9966789585473802
0.010039375128886538	6.546817613869958e-27	2.5916080748809764e8	7.711657060788671e24	76.85494563750905	58.478926658803964	2.1344768325867824	0.9966789585473802
0.010078905297850554	1.3302706784334654e-26	2.5916080748809764e8	7.711657060788671e24	76.85494563750905	58.478926658803964	2.1344768325867824	0.9966789585473802
0.010118591117364358	2.0243788344606134e-26	2.5916080748809764e8	7.711657060788671e24	76.85494563750905	58.478926658803964	2.1344768325867824	0.9966789585473802
0.010158433200303992	2.734558408842825e-26	2.5916080748809764e8	7.711657060788671e24	76.85494563750905	58.478926658803964	2.1344768325867824	0.9966789585473802
0.010198432161958712	3.4583006749005546e-26	2.5916080748809764e8	7.711657060788671e24	76.85494563750905	58.478926658803964	2.1344768325867824	0.9966789585473802
0.010238588620040482	4.1930349834402213e-26	2.5916080748809764e8	7.711657060788671e24	76.85494563750905	58.478926658803964	2.1344768325867824	0.9966789585473802
0.010278903194693469	4.936127731749739e-26	2.5916080748809764e8	7.711657060788671e24	76.85494563750905	58.478926658803964	2.1344768325867824	0.9966789585473802
0.010319376508503793	5.684881317862113e-26	2.5916080748809764e8	7.711657060788671e24	76.85494563750905	58.478926658803964	2.1344768325867824	0.9966789585473802
0.010360009186508893	6.436533079879779e-26	2.5916080748809764e8	7.711657060788671e24	76.85494563750905	58.478926658803964	2.1344768325867824	0.9966789585473802
0.010400801856207339	7.188254220177424e-26	2.5916080748809764e8	7.711657060788671e24	76.85494563750905	58.478926658803964	2.1344768325867824	0.9966789585473802
0.010441755147568484	7.937148714272039e-26	2.5916080748809764e8	7.711657060788671e24	76.85494563750905	58.478926658803964	2.1344768325867824	0.9966789585473802
0.010482869693042199	8.680491932181709e-26	2.5916080748809764e8	7.711657060788671e24	76.85494563750905	58.478926658803964	2.1344768325867824	0.9966789585473802
0.010524146127568624	9.436526769648925e-26	2.5916080748809764e8	7.711657060788671e24	76.85494563750905	58.478926658803964	2.1344768325867824	0.9966789585473802
0.010565585088587997	1.0216114495159322e-25	2.5916080748809764e8	7.711657060788671e24	76.85494563750905	58.478926658803964	2.1344768325867824	0.9966789585473802
0.010607187216050477	1.1016357317694858e-25	2.5916080748809764e8	7.711657060788671e24	76.85494563750905	58.478926658803964	2.1344768325867824	0.9966789585473802
0.010648953152426033	1.1834285048844838e-25	2.5916080748809764e8	7.711657060788671e24	76.85494563750905	58.478926658803964	2.1344768325867824	0.9966789585473802
0.010690883542714375	1.2666853893100658e-25	2.5916080748809764e8	7.711657060788671e24	76.85494563750905	58.478926658803964	2.1344768325867824	0.9966789585473802
0.010732979034454863	1.3510945220832303e-25	2.5916080748809764e8	7.711657060788671e24	76.85494563750905	58.478926658803964	2.1344768325867824	0.9966789585473802
0.010775240277736674	1.4363364323721596e-25	2.5916080748809764e8	7.711657060788671e24	76.85494563750905	58.478926658803964	2.1344768325867824	0.9966789585473802
0.010817667925208599	1.5220839152407337e-25	2.5916080748809764e8	7.711657060788671e24	76.85494563750905	58.478926658803964	2.1344768325867824	0.9966789585473802
0.010860262632089277	1.6080019036123565e-25	2.5916080748809764e8	7.711657060788671e24	76.85494563750905	58.478926658803964	2.1344768325867824	0.9966789585473802
0.010903025056177289	1.6937473384079998e-25	2.5916080748809764e8	7.711657060788671e24	76.85494563750905	58.478926658803964	2.1344768325867824	0.9966789585473802
0.010945955857861298	1.778969036834769e-25	2.5916080748809764e8	7.711657060788671e24	76.85494563750905	58.478926658803964	2.1344768325867824	0.9966789585473802
0.010989055700130257	1.8645125900437206e-25	2.5916080748809764e8	7.711657060788671e24	76.85494563750905	58.478926658803964	2.1344768325867824	0.9966789585473802
0.01103232524858365	1.9529330129398293e-25	2.5916080748809764e8	7.711657060788671e24	76.85494563750905	58.478926658803964	2.1344768325867824	0.9966789585473802
0.011075765171441761	2.044184879637618e-25	2.5916080748809764e8	7.711657060788671e24	76.85494563750905	58.478926658803964	2.1344768325867824	0.9966789585473802
0.011119376139556013	2.1381051810250505e-25	2.5916080748809764e8	7.711657060788671e24	76.85494563750905	58.478926658803964	2.1344768325867824	0.9966789585473802
0.011163158826419297	2.2345265942095463e-25	2.5916080748809764e8	7.711657060788671e24	76.85494563750905	58.478926658803964	2.1344768325867824	0.9966789585473802
0.011207113908176409	2.3332774093099244e-25	2.5916080748809764e8	7.711657060788671e24	76.85494563750905	58.478926658803964	2.1344768325867824	0.9966789585473802
0.011251242063634459	2.434181455193246e-25	2.5916080748809764e8	7.711657060788671e24	76.85494563750905	58.478926658803964	2.1344768325867824	0.9966789585473802
0.01129554397427333	2.5370580241425235e-25	2.5916080748809764e8	7.711657060788671e24	76.85494563750905	58.478926658803964	2.1344768325867824	0.9966789585473802
0.011340020324256381	2.641721795441676e-25	2.5916080748809764e8	7.711657060788671e24	76.85494563750905	58.478926658803964	2.1344768325867824	0.9966789585473802
0.011384671800440734	2.7479827578617155e-25	2.5916080748809764e8	7.711657060788671e24	76.85494563750905	58.478926658803964	2.1344768325867824	0.9966789585473802
0.011429499092388056	2.855646131035733e-25	2.5916080748809764e8	7.711657060788671e24	76.85494563750905	58.478926658803964	2.1344768325867824	0.9966789585473802
0.011474502892375185	2.9645122857063655e-25	2.5916080748809764e8	7.711657060788671e24	76.85494563750905	58.478926658803964	2.1344768325867824	0.9966789585473802
0.011519683895404802	3.07437666283137e-25	2.5916080748809764e8	7.711657060788671e24	76.85494563750905	58.478926658803964	2.1344768325867824	0.9966789585473802
0.011565042799216172	3.1850296915320574e-25	2.5916080748809764e8	7.711657060788671e24	76.85494563750905	58.478926658803964	2.1344768325867824	0.9966789585473802
0.011610580304295912	3.296256705869279e-25	2.5916080748809764e8	7.711657060788671e24	76.85494563750905	58.478926658803964	2.1344768325867824	0.9966789585473802
0.011656297113888821	3.4078378604314645e-25	2.5916080748809764e8	7.711657060788671e24	76.85494563750905	58.478926658803964	2.1344768325867824	0.9966789585473802
0.011702193934008731	3.519548044718901e-25	2.5916080748809764e8	7.711657060788671e24	76.85494563750905	58.478926658803964	2.1344768325867824	0.9966789585473802
0.011748271473449411	3.6311567963083697e-25	2.5916080748809764e8	7.711657060788671e24	76.85494563750905	58.478926658803964	2.1344768325867824	0.9966789585473802
0.011794530443795468	3.7424282127819437e-25	2.5916080748809764e8	7.711657060788671e24	76.85494563750905	58.478926658803964	2.1344768325867824	0.9966789585473802
0.011840971559433526	3.853120862404218e-25	2.5916080748809764e8	7.711657060788671e24	76.85494563750905	58.478926658803964	2.1344768325867824	0.9966789585473802
0.011887595537562972	3.962987693529761e-25	2.5916080748809764e8	7.711657060788671e24	76.85494563750905	58.478926658803964	2.1344768325867824	0.9966789585473802
0.011934403098207225	4.0723577523544443e-25	2.5916080748809764e8	7.711657060788671e24	76.85494563750905	58.478926658803964	2.1344768325867824	0.9966789585473802
0.0119813949642248	4.184886686269322e-25	2.5916080748809764e8	7.711657060788671e24	76.85494563750905	58.478926658803964	2.1344768325867824	0.9966789585473802
0.012028571861320482	4.301072408319507e-25	2.5916080748809764e8	7.711657060788671e24	76.85494563750905	58.478926658803964	2.1344768325867824	0.9966789585473802
0.012075934518056523	4.420685741421586e-25	2.5916080748809764e8	7.711657060788671e24	76.85494563750905	58.478926658803964	2.1344768325867824	0.9966789585473802
0.012123483665863905	4.543491494849725e-25	2.5916080748809764e8	7.711657060788671e24	76.85494563750905	58.478926658803964	2.1344768325867824	0.9966789585473802
0.012171220039053621	4.669248362403892e-25	2.5916080748809764e8	7.711657060788671e24	76.85494563750905	58.478926658803964	2.1344768325867824	0.9966789585473802
0.012219144374828031	4.7977088191119915e-25	2.5916080748809764e8	7.711657060788671e24	76.85494563750905	58.478926658803964	2.1344768325867824	0.9966789585473802
0.01226725741329223	4.928619016446292e-25	2.5916080748809764e8	7.711657060788671e24	76.85494563750905	58.478926658803964	2.1344768325867824	0.9966789585473802
0.012315559897465498	5.061718676034456e-25	2.5916080748809764e8	7.711657060788671e24	76.85494563750905	58.478926658803964	2.1344768325867824	0.9966789585473802
0.012364052573292749	5.19674098184512e-25	2.5916080748809764e8	7.711657060788671e24	76.85494563750905	58.478926658803964	2.1344768325867824	0.9966789585473802
0.012412736189656026	5.333412470827733e-25	2.5916080748809764e8	7.711657060788671e24	76.85494563750905	58.478926658803964	2.1344768325867824	0.9966789585473802
0.01246161149838625	5.471452921986868e-25	2.5916080748809764e8	7.711657060788671e24	76.85494563750905	58.478926658803964	2.1344768325867824	0.9966789585473802
0.012510679254274537	5.61057524386824e-25	2.5916080748809764e8	7.711657060788671e24	76.85494563750905	58.478926658803964	2.1344768325867824	0.9966789585473802
0.01255994021508405	5.750485360438076e-25	2.5916080748809764e8	7.711657060788671e24	76.85494563750905	58.478926658803964	2.1344768325867824	0.9966789585473802
0.012609395141561659	5.89088209533262e-25	2.5916080748809764e8	7.711657060788671e24	76.85494563750905	58.478926658803964	2.1344768325867824	0.9966789585473802
0.012659044797449679	6.031457054456827e-25	2.5916080748809764e8	7.711657060788671e24	76.85494563750905	58.478926658803964	2.1344768325867824	0.9966789585473802
0.01270888994949768	6.171894506910439e-25	2.5916080748809764e8	7.711657060788671e24	76.85494563750905	58.478926658803964	2.1344768325867824	0.9966789585473802
0.012758931367474302	6.311871264219192e-25	2.5916080748809764e8	7.711657060788671e24	76.85494563750905	58.478926658803964	2.1344768325867824	0.9966789585473802
0.012809169824179173	6.451056557848865e-25	2.5916080748809764e8	7.711657060788671e24	76.85494563750905	58.478926658803964	2.1344768325867824	0.9966789585473802
0.012859606095454827	6.589111914979411e-25	2.5916080748809764e8	7.711657060788671e24	76.85494563750905	58.478926658803964	2.1344768325867824	0.9966789585473802
0.012910240960198688	6.726940130476517e-25	2.5916080748809764e8	7.711657060788671e24	76.85494563750905	58.478926658803964	2.1344768325867824	0.9966789585473802
0.012961075200375037	6.86674833452651e-25	2.5916080748809764e8	7.711657060788671e24	76.85494563750905	58.478926658803964	2.1344768325867824	0.9966789585473802
0.013012109601027317	7.0086093735010955e-25	2.5916080748809764e8	7.711657060788671e24	76.85494563750905	58.478926658803964	2.1344768325867824	0.9966789585473802
0.013063344950289933	7.1525431847093755e-25	2.5916080748809764e8	7.711657060788671e24	76.85494563750905	58.478926658803964	2.1344768325867824	0.9966789585473802
0.013114782039400624	7.29856987750025e-25	2.5916080748809764e8	7.711657060788671e24	76.85494563750905	58.478926658803964	2.1344768325867824	0.9966789585473802
0.013166421662712643	7.446709734677799e-25	2.5916080748809764e8	7.711657060788671e24	76.85494563750905	58.478926658803964	2.1344768325867824	0.9966789585473802
0.013218264617707018	7.596983213928056e-25	2.5916080748809764e8	7.711657060788671e24	76.85494563750905	58.478926658803964	2.1344768325867824	0.9966789585473802
0.013270311705004869	7.749410949257458e-25	2.5916080748809764e8	7.711657060788671e24	76.85494563750905	58.478926658803964	2.1344768325867824	0.9966789585473802
0.013322563728379774	7.904013752442686e-25	2.5916080748809764e8	7.711657060788671e24	76.85494563750905	58.478926658803964	2.1344768325867824	0.9966789585473802
0.013375021494770172	8.060812614492258e-25	2.5916080748809764e8	7.711657060788671e24	76.85494563750905	58.478926658803964	2.1344768325867824	0.9966789585473802
0.013427685814291846	8.219828707119977e-25	2.5916080748809764e8	7.711657060788671e24	76.85494563750905	58.478926658803964	2.1344768325867824	0.9966789585473802
0.013480557500250408	8.381083384230047e-25	2.5916080748809764e8	7.711657060788671e24	76.85494563750905	58.478926658803964	2.1344768325867824	0.9966789585473802
0.013533637369153875	8.544598183414303e-25	2.5916080748809764e8	7.711657060788671e24	76.85494563750905	58.478926658803964	2.1344768325867824	0.9966789585473802
0.01358692624072528	8.710394827461398e-25	2.5916080748809764e8	7.711657060788671e24	76.85494563750905	58.478926658803964	2.1344768325867824	0.9966789585473802
0.013640424937915261	8.878495225878006e-25	2.5916080748809764e8	7.711657060788671e24	76.85494563750905	58.478926658803964	2.1344768325867824	0.9966789585473802
0.01369413428691501	9.048921476423166e-25	2.5916080748809764e8	7.711657060788671e24	76.85494563750905	58.478926658803964	2.1344768325867824	0.9966789585473802
0.013748055117168688	9.221695866653091e-25	2.5916080748809764e8	7.711657060788671e24	76.85494563750905	58.478926658803964	2.1344768325867824	0.9966789585473802
0.013802188261386456	9.396840875480309e-25	2.5916080748809764e8	7.711657060788671e24	76.85494563750905	58.478926658803964	2.1344768325867824	0.9966789585473802
0.013856534555557283	9.574379174744384e-25	2.5916080748809764e8	7.711657060788671e24	76.85494563750905	58.478926658803964	2.1344768325867824	0.9966789585473802
0.01391109483896186	9.754333630795473e-25	2.5916080748809764e8	7.711657060788671e24	76.85494563750905	58.478926658803964	2.1344768325867824	0.9966789585473802
0.013965869954185552	9.936727306090607e-25	2.5916080748809764e8	7.711657060788671e24	76.85494563750905	58.478926658803964	2.1344768325867824	0.9966789585473802
0.014020860747131414	1.0121583460802797e-24	2.5916080748809764e8	7.711657060788671e24	76.85494563750905	58.478926658803964	2.1344768325867824	0.9966789585473802
0.014076068067033256	1.0308925554443136e-24	2.5916080748809764e8	7.711657060788671e24	76.85494563750905	58.478926658803964	2.1344768325867824	0.9966789585473802
0.01413149276646876	1.0498777247495896e-24	2.5916080748809764e8	7.711657060788671e24	76.85494563750905	58.478926658803964	2.1344768325867824	0.9966789585473802
0.014187135701372642	1.0691162403066755e-24	2.5916080748809764e8	7.711657060788671e24	76.85494563750905	58.478926658803964	2.1344768325867824	0.9966789585473802
0.014242997731049813	1.0886105088544124e-24	2.5916080748809764e8	7.711657060788671e24	76.85494563750905	58.478926658803964	2.1344768325867824	0.9966789585473802
0.014299079718188883	1.1083629577274818e-24	2.5916080748809764e8	7.711657060788671e24	76.85494563750905	58.478926658803964	2.1344768325867824	0.9966789585473802
0.014355382528875133	1.128376035025117e-24	2.5916080748809764e8	7.711657060788671e24	76.85494563750905	58.478926658803964	2.1344768325867824	0.9966789585473802
0.014411907032604126	1.1486522097813722e-24	2.5916080748809764e8	7.711657060788671e24	76.85494563750905	58.478926658803964	2.1344768325867824	0.9966789585473802
0.014468654102295078	1.1691939721366616e-24	2.5916080748809764e8	7.711657060788671e24	76.85494563750905	58.478926658803964	2.1344768325867824	0.9966789585473802
0.014525624614304334	1.1900038335106952e-24	2.5916080748809764e8	7.711657060788671e24	76.85494563750905	58.478926658803964	2.1344768325867824	0.9966789585473802
0.014582819448438894	1.211084326776802e-24	2.5916080748809764e8	7.711657060788671e24	76.85494563750905	58.478926658803964	2.1344768325867824	0.9966789585473802
0.014640239487970028	1.2324380064376646e-24	2.5916080748809764e8	7.711657060788671e24	76.85494563750905	58.478926658803964	2.1344768325867824	0.9966789585473802
0.01469788561964688	1.25406744880245e-24	2.5916080748809764e8	7.711657060788671e24	76.85494563750905	58.478926658803964	2.1344768325867824	0.9966789585473802
0.014755758733710194	1.275975252165376e-24	2.5916080748809764e8	7.711657060788671e24	76.85494563750905	58.478926658803964	2.1344768325867824	0.9966789585473802
0.014813859723906034	1.298164036985702e-24	2.5916080748809764e8	7.711657060788671e24	76.85494563750905	58.478926658803964	2.1344768325867824	0.9966789585473802
0.014872189487499616	1.3206364460691839e-24	2.5916080748809764e8	7.711657060788671e24	76.85494563750905	58.478926658803964	2.1344768325867824	0.9966789585473802
0.014930748925289141	1.3433951447509617e-24	2.5916080748809764e8	7.711657060788671e24	76.85494563750905	58.478926658803964	2.1344768325867824	0.9966789585473802
0.014989538941619654	1.3664428210799072e-24	2.5916080748809764e8	7.711657060788671e24	76.85494563750905	58.478926658803964	2.1344768325867824	0.9966789585473802
0.015048560444397252	1.3897821860045752e-24	2.5916080748809764e8	7.711657060788671e24	76.85494563750905	58.478926658803964	2.1344768325867824	0.9966789585473802
0.015107814345102742	1.4134159735603976e-24	2.5916080748809764e8	7.711657060788671e24	76.85494563750905	58.478926658803964	2.1344768325867824	0.9966789585473802
0.015167301558805966	1.437346941058628e-24	2.5916080748809764e8	7.711657060788671e24	76.85494563750905	58.478926658803964	2.1344768325867824	0.9966789585473802
0.015227023004179857	1.461577869276678e-24	2.5916080748809764e8	7.711657060788671e24	76.85494563750905	58.478926658803964	2.1344768325867824	0.9966789585473802
0.015286979603514635	1.4861115626500106e-24	2.5916080748809764e8	7.711657060788671e24	76.85494563750905	58.478926658803964	2.1344768325867824	0.9966789585473802
0.015347172282732056	1.510950849465577e-24	2.5916080748809764e8	7.711657060788671e24	76.85494563750905	58.478926658803964	2.1344768325867824	0.9966789585473802
0.015407601971399695	1.5360985820567914e-24	2.5916080748809764e8	7.711657060788671e24	76.85494563750905	58.478926658803964	2.1344768325867824	0.9966789585473802
0.015468269602745324	1.5615576370000925e-24	2.5916080748809764e8	7.711657060788671e24	76.85494563750905	58.478926658803964	2.1344768325867824	0.9966789585473802
0.015529176113671297	1.5873309153130632e-24	2.5916080748809764e8	7.711657060788671e24	76.85494563750905	58.478926658803964	2.1344768325867824	0.9966789585473802
0.015590322444769043	1.6134213426541547e-24	2.5916080748809764e8	7.711657060788671e24	76.85494563750905	58.478926658803964	2.1344768325867824	0.9966789585473802
0.01565170954033352	1.6398318695239781e-24	2.5916080748809764e8	7.711657060788671e24	76.85494563750905	58.478926658803964	2.1344768325867824	0.9966789585473802
0.01571333834837804	1.666565471468348e-24	2.5916080748809764e8	7.711657060788671e24	76.85494563750905	58.478926658803964	2.1344768325867824	0.9966789585473802
0.015775209820648547	1.693625149282693e-24	2.5916080748809764e8	7.711657060788671e24	76.85494563750905	58.478926658803964	2.1344768325867824	0.9966789585473802
0.015837324912638562	1.72101392921836e-24	2.5916080748809764e8	7.711657060788671e24	76.85494563750905	58.478926658803964	2.1344768325867824	0.9966789585473802
0.015899684583603867	1.748734863190457e-24	2.5916080748809764e8	7.711657060788671e24	76.85494563750905	58.478926658803964	2.1344768325867824	0.9966789585473802
0.015962289796577333	1.776791028987382e-24	2.5916080748809764e8	7.711657060788671e24	76.85494563750905	58.478926658803964	2.1344768325867824	0.9966789585473802
0.016025141518383773	1.8051855304820224e-24	2.5916080748809764e8	7.711657060788671e24	76.85494563750905	58.478926658803964	2.1344768325867824	0.9966789585473802
0.016088240719654905	1.83392149784468e-24	2.5916080748809764e8	7.711657060788671e24	76.85494563750905	58.478926658803964	2.1344768325867824	0.9966789585473802
0.0161515883748443	1.863002087757659e-24	2.5916080748809764e8	7.711657060788671e24	76.85494563750905	58.478926658803964	2.1344768325867824	0.9966789585473802
0.016215185462242473	1.892430483631625e-24	2.5916080748809764e8	7.711657060788671e24	76.85494563750905	58.478926658803964	2.1344768325867824	0.9966789585473802
