r[m]	M[Msun]	rho[g/cm^3]	P[N/m^2]	n_e[pm^-3]	n_p[pm^-3]	muF_e[MeV]	B
0.010000000000000014	7.67028640212858e-38	8.291419757037344e9	8.08089959796219e26	2458.087778224922	2486.931828638055	7.744165030796085	0.9888769756896704
0.010037549436075986	1.992054332620309e-25	8.291419757037344e9	8.08089959796219e26	2458.087778224922	2486.931828638055	7.744165030796085	0.9888769756896704
0.010075239868166963	4.023092607413707e-25	8.291419757037344e9	8.08089959796219e26	2458.087778224922	2486.931828638055	7.744165030796085	0.9888769756896704
0.010113071825704945	6.064942373387493e-25	8.291419757037344e9	8.08089959796219e26	2458.087778224922	2486.931828638055	7.744165030796085	0.9888769756896704
0.01015104584011009	8.121000957625574e-25	8.291419757037344e9	8.08089959796219e26	2458.087778224922	2486.931828638055	7.744165030796085	0.9888769756896704
0.010189162444797837	1.0220632813958334e-24	8.291419757037344e9	8.08089959796219e26	2458.087778224922	2486.931828638055	7.744165030796085	0.9888769756896704
0.010227422175186743	1.23356107189654e-24	8.291419757037344e9	8.08089959796219e26	2458.087778224922	2486.931828638055	7.744165030796085	0.9888769756896704
0.01026582556870566	1.4449693361877847e-24	8.291419757037344e9	8.08089959796219e26	2458.087778224922	2486.931828638055	7.744165030796085	0.9888769756896704
0.010304373164801622	1.6585957693118657e-24	8.291419757037344e9	8.08089959796219e26	2458.087778224922	2486.931828638055	7.744165030796085	0.9888769756896704
0.01034306550494709	1.8746459235600724e-24	8.291419757037344e9	8.08089959796219e26	2458.087778224922	2486.931828638055	7.744165030796085	0.9888769756896704
0.010381903132647894	2.0931411005096297e-24	8.291419757037344e9	8.08089959796219e26	2458.087778224922	2486.931828638055	7.744165030796085	0.9888769756896704
0.010420886593450524	2.314102773520404e-24	8.291419757037344e9	8.08089959796219e26	2458.087778224922	2486.931828638055	7.744165030796085	0.9888769756896704
0.01046001643495014	2.5375525890726812e-24	8.291419757037344e9	8.08089959796219e26	2458.087778224922	2486.931828638055	7.744165030796085	0.9888769756896704
0.010499293206797919	2.763518606850553e-24	8.291419757037344e9	8.08089959796219e26	2458.087778224922	2486.931828638055	7.744165030796085	0.9888769756896704
0.010538717460709116	2.9920517747979087e-24	8.291419757037344e9	8.08089959796219e26	2458.087778224922	2486.931828638055	7.744165030796085	0.9888769756896704
0.010578289750470482	3.223178284426709e-24	8.291419757037344e9	8.08089959796219e26	2458.087778224922	2486.931828638055	7.744165030796085	0.9888769756896704
0.010618010631948364	3.456920929305354e-24	8.291419757037344e9	8.08089959796219e26	2458.087778224922	2486.931828638055	7.744165030796085	0.9888769756896704
0.0106578806630962	3.693302686820883e-24	8.291419757037344e9	8.08089959796219e26	2458.087778224922	2486.931828638055	7.744165030796085	0.9888769756896704
0.01069790040396267	3.932346719610229e-24	8.291419757037344e9	8.08089959796219e26	2458.087778224922	2486.931828638055	7.744165030796085	0.9888769756896704
0.010738070416699242	4.174082786800401e-24	8.291419757037344e9	8.08089959796219e26	2458.087778224922	2486.931828638055	7.744165030796085	0.9888769756896704
0.0107783912655684	4.418564735261461e-24	8.291419757037344e9	8.08089959796219e26	2458.087778224922	2486.931828638055	7.744165030796085	0.9888769756896704
0.01081886351695123	4.665820583166959e-24	8.291419757037344e9	8.08089959796219e26	2458.087778224922	2486.931828638055	7.744165030796085	0.9888769756896704
0.010859487739355717	4.9158747099964876e-24	8.291419757037344e9	8.08089959796219e26	2458.087778224922	2486.931828638055	7.744165030796085	0.9888769756896704
0.010900264503424392	5.1687516918344536e-24	8.291419757037344e9	8.08089959796219e26	2458.087778224922	2486.931828638055	7.744165030796085	0.9888769756896704
0.010941194381942689	5.424476302900892e-24	8.291419757037344e9	8.08089959796219e26	2458.087778224922	2486.931828638055	7.744165030796085	0.9888769756896704
0.010982277949846643	5.683076452987975e-24	8.291419757037344e9	8.08089959796219e26	2458.087778224922	2486.931828638055	7.744165030796085	0.9888769756896704
0.011023515784231323	5.944589836748851e-24	8.291419757037344e9	8.08089959796219e26	2458.087778224922	2486.931828638055	7.744165030796085	0.9888769756896704
0.011064908464358569	6.2090502356695294e-24	8.291419757037344e9	8.08089959796219e26	2458.087778224922	2486.931828638055	7.744165030796085	0.9888769756896704
0.011106456571665507	6.476491346433826e-24	8.291419757037344e9	8.08089959796219e26	2458.087778224922	2486.931828638055	7.744165030796085	0.9888769756896704
0.011148160689772339	6.746947251241452e-24	8.291419757037344e9	8.08089959796219e26	2458.087778224922	2486.931828638055	7.744165030796085	0.9888769756896704
0.011190021404490913	7.020452422209805e-24	8.291419757037344e9	8.08089959796219e26	2458.087778224922	2486.931828638055	7.744165030796085	0.9888769756896704
0.011232039303832583	7.29704172582094e-24	8.291419757037344e9	8.08089959796219e26	2458.087778224922	2486.931828638055	7.744165030796085	0.9888769756896704
0.011274214978016835	7.576750427424006e-24	8.291419757037344e9	8.08089959796219e26	2458.087778224922	2486.931828638055	7.744165030796085	0.9888769756896704
0.011316549019479217	7.859614195784115e-24	8.291419757037344e9	8.08089959796219e26	2458.087778224922	2486.931828638055	7.744165030796085	0.9888769756896704
0.011359042022880019	8.145669107687747e-24	8.291419757037344e9	8.08089959796219e26	2458.087778224922	2486.931828638055	7.744165030796085	0.9888769756896704
0.011401694585112261	8.434951652595773e-24	8.291419757037344e9	8.08089959796219e26	2458.087778224922	2486.931828638055	7.744165030796085	0.9888769756896704
0.011444507305310452	8.727498737354372e-24	8.291419757037344e9	8.08089959796219e26	2458.087778224922	2486.931828638055	7.744165030796085	0.9888769756896704
0.011487480784858627	9.023347690954396e-24	8.291419757037344e9	8.08089959796219e26	2458.087778224922	2486.931828638055	7.744165030796085	0.9888769756896704
0.011530615627399175	9.322536269350247e-24	8.291419757037344e9	8.08089959796219e26	2458.087778224922	2486.931828638055	7.744165030796085	0.9888769756896704
0.01157391243884094	9.625102660328118e-24	8.291419757037344e9	8.08089959796219e26	2458.087778224922	2486.931828638055	7.744165030796085	0.9888769756896704
0.011617371827368102	9.931085488435126e-24	8.291419757037344e9	8.08089959796219e26	2458.087778224922	2486.931828638055	7.744165030796085	0.9888769756896704
0.011660994403448359	1.02405238199591e-23	8.291419757037344e9	8.08089959796219e26	2458.087778224922	2486.931828638055	7.744165030796085	0.9888769756896704
0.011704780779841863	1.05534571679704e-23	8.291419757037344e9	8.08089959796219e26	2458.087778224922	2486.931828638055	7.744165030796085	0.9888769756896704
0.011748731571609458	1.0869925497415702e-23	8.291419757037344e9	8.08089959796219e26	2458.087778224922	2486.931828638055	7.744165030796085	0.9888769756896704
0.011792847396121698	1.1189969230275257e-23	8.291419757037344e9	8.08089959796219e26	2458.087778224922	2486.931828638055	7.744165030796085	0.9888769756896704
0.011837128873067135	1.1513629250773183e-23	8.291419757037344e9	8.08089959796219e26	2458.087778224922	2486.931828638055	7.744165030796085	0.9888769756896704
0.011881576624461411	1.1840946910652792e-23	8.291419757037344e9	8.08089959796219e26	2458.087778224922	2486.931828638055	7.744165030796085	0.9888769756896704
0.01192619127465561	1.217196403450611e-23	8.291419757037344e9	8.08089959796219e26	2458.087778224922	2486.931828638055	7.744165030796085	0.9888769756896704
0.01197097345034541	1.2506722925169876e-23	8.291419757037344e9	8.08089959796219e26	2458.087778224922	2486.931828638055	7.744165030796085	0.9888769756896704
0.012015923780579502	1.2845266369177108e-23	8.291419757037344e9	8.08089959796219e26	2458.087778224922	2486.931828638055	7.744165030796085	0.9888769756896704
0.012061042896768815	1.318763764227645e-23	8.291419757037344e9	8.08089959796219e26	2458.087778224922	2486.931828638055	7.744165030796085	0.9888769756896704
0.012106331432694992	1.353388051500858e-23	8.291419757037344e9	8.08089959796219e26	2458.087778224922	2486.931828638055	7.744165030796085	0.9888769756896704
0.012151790024519694	1.3884039258351875e-23	8.291419757037344e9	8.08089959796219e26	2458.087778224922	2486.931828638055	7.744165030796085	0.9888769756896704
0.012197419310793128	1.423815864942632e-23	8.291419757037344e9	8.08089959796219e26	2458.087778224922	2486.931828638055	7.744165030796085	0.9888769756896704
0.012243219932463426	1.4596283977268404e-23	8.291419757037344e9	8.08089959796219e26	2458.087778224922	2486.931828638055	7.744165030796085	0.9888769756896704
0.012289192532885237	1.495846104866549e-23	8.291419757037344e9	8.08089959796219e26	2458.087778224922	2486.931828638055	7.744165030796085	0.9888769756896704
0.012335337757829174	1.5324736194062898e-23	8.291419757037341e9	8.080899597962186e26	2458.0877782249213	2486.9318286380535	7.744165030796085	0.9888769756896704
0.01238165625549049	1.5695156273531776e-23	8.291419757037341e9	8.080899597962186e26	2458.0877782249213	2486.9318286380535	7.744165030796085	0.9888769756896704
0.012428148676498562	1.6069768682811248e-23	8.291419757037341e9	8.080899597962186e26	2458.0877782249213	2486.9318286380535	7.744165030796085	0.9888769756896704
0.01247481567392565	1.6448621359412832e-23	8.291419757037341e9	8.080899597962186e26	2458.0877782249213	2486.9318286380535	7.744165030796085	0.9888769756896704
0.01252165790329646	1.683176278880087e-23	8.291419757037341e9	8.080899597962186e26	2458.0877782249213	2486.9318286380535	7.744165030796085	0.9888769756896704
0.012568676022596963	1.721924201063664e-23	8.291419757037341e9	8.080899597962186e26	2458.0877782249213	2486.9318286380535	7.744165030796085	0.9888769756896704
0.012615870692284026	1.7611108625100073e-23	8.291419757037341e9	8.080899597962186e26	2458.0877782249213	2486.9318286380535	7.744165030796085	0.9888769756896704
0.012663242575294293	1.8007412799276686e-23	8.291419757037341e9	8.080899597962186e26	2458.0877782249213	2486.9318286380535	7.744165030796085	0.9888769756896704
0.0127107923370539	1.840820527362403e-23	8.291419757037341e9	8.080899597962186e26	2458.0877782249213	2486.9318286380535	7.744165030796085	0.9888769756896704
0.012758520645487416	1.8813537368504637e-23	8.291419757037341e9	8.080899597962186e26	2458.0877782249213	2486.9318286380535	7.744165030796085	0.9888769756896704
0.01280642817102764	1.9223460990800506e-23	8.291419757037341e9	8.080899597962186e26	2458.0877782249213	2486.9318286380535	7.744165030796085	0.9888769756896704
0.012854515586624593	1.963802864059534e-23	8.291419757037341e9	8.080899597962186e26	2458.0877782249213	2486.9318286380535	7.744165030796085	0.9888769756896704
0.012902783567755401	2.0057293417940323e-23	8.291419757037341e9	8.080899597962186e26	2458.0877782249213	2486.9318286380535	7.744165030796085	0.9888769756896704
0.012951232792433355	2.0481309029689384e-23	8.291419757037341e9	8.080899597962186e26	2458.0877782249213	2486.9318286380535	7.744165030796085	0.9888769756896704
0.012999863941217861	2.091012979641958e-23	8.291419757037341e9	8.080899597962186e26	2458.0877782249213	2486.9318286380535	7.744165030796085	0.9888769756896704
0.01304867769722357	2.1343810659422736e-23	8.291419757037341e9	8.080899597962186e26	2458.0877782249213	2486.9318286380535	7.744165030796085	0.9888769756896704
0.013097674746130411	2.178240718778412e-23	8.291419757037341e9	8.080899597962186e26	2458.0877782249213	2486.9318286380535	7.744165030796085	0.9888769756896704
0.013146855776192783	2.2225975585533945e-23	8.291419757037341e9	8.080899597962186e26	2458.0877782249213	2486.9318286380535	7.744165030796085	0.9888769756896704
0.013196221478249654	2.2674572698887993e-23	8.291419757037341e9	8.080899597962186e26	2458.0877782249213	2486.9318286380535	7.744165030796085	0.9888769756896704
0.013245772545733846	2.3128256023562753e-23	8.291419757037341e9	8.080899597962186e26	2458.0877782249213	2486.9318286380535	7.744165030796085	0.9888769756896704
0.01329550967468219	2.3587083712181455e-23	8.291419757037341e9	8.080899597962186e26	2458.0877782249213	2486.9318286380535	7.744165030796085	0.9888769756896704
0.013345433563744886	2.405111443652161e-23	8.291419757037341e9	8.080899597962186e26	2458.0877782249213	2486.9318286380535	7.744165030796085	0.9888769756896704
0.013395544914195739	2.452039784029358e-23	8.291419757037341e9	8.080899597962186e26	2458.0877782249213	2486.9318286380535	7.744165030796085	0.9888769756896704
0.01344584442994158	2.4994987517188812e-23	8.291419757037341e9	8.080899597962186e26	2458.0877782249213	2486.9318286380535	7.744165030796085	0.9888769756896704
0.013496332817532593	2.5474943466207287e-23	8.291419757037341e9	8.080899597962186e26	2458.0877782249213	2486.9318286380535	7.744165030796085	0.9888769756896704
0.013547010786171793	2.596032636476656e-23	8.291419757037341e9	8.080899597962186e26	2458.0877782249213	2486.9318286380535	7.744165030796085	0.9888769756896704
0.013597879047725433	2.645119757637696e-23	8.291419757037341e9	8.080899597962186e26	2458.0877782249213	2486.9318286380535	7.744165030796085	0.9888769756896704
0.013648938316732572	2.694761915839513e-23	8.291419757037341e9	8.080899597962186e26	2458.0877782249213	2486.9318286380535	7.744165030796085	0.9888769756896704
0.013700189310415532	2.7449653869873656e-23	8.291419757037341e9	8.080899597962186e26	2458.0877782249213	2486.9318286380535	7.744165030796085	0.9888769756896704
0.013751632748689579	2.795736517949133e-23	8.291419757037341e9	8.080899597962186e26	2458.0877782249213	2486.9318286380535	7.744165030796085	0.9888769756896704
0.013803269354173323	2.847081727357993e-23	8.291419757037341e9	8.080899597962186e26	2458.0877782249213	2486.9318286380535	7.744165030796085	0.9888769756896704
0.013855099852198748	2.8990075064237607e-23	8.291419757037341e9	8.080899597962186e26	2458.0877782249213	2486.9318286380535	7.744165030796085	0.9888769756896704
0.013907124970821411	2.9515204197535394e-23	8.291419757037341e9	8.080899597962186e26	2458.0877782249213	2486.9318286380535	7.744165030796085	0.9888769756896704
0.013959345440830682	3.0046271061816466e-23	8.291419757037341e9	8.080899597962186e26	2458.0877782249213	2486.9318286380535	7.744165030796085	0.9888769756896704
0.01401176199576	3.0583342796089114e-23	8.291419757037341e9	8.080899597962186e26	2458.0877782249213	2486.9318286380535	7.744165030796085	0.9888769756896704
0.014064375371897184	3.1126487298514654e-23	8.291419757037341e9	8.080899597962186e26	2458.0877782249213	2486.9318286380535	7.744165030796085	0.9888769756896704
0.014117186308294765	3.167577323499123e-23	8.291419757037341e9	8.080899597962186e26	2458.0877782249213	2486.9318286380535	7.744165030796085	0.9888769756896704
0.014170195546780387	3.223127004783501e-23	8.291419757037341e9	8.080899597962186e26	2458.0877782249213	2486.9318286380535	7.744165030796085	0.9888769756896704
0.0142234038319672	3.2793047964558877e-23	8.291419757037341e9	8.080899597962186e26	2458.0877782249213	2486.9318286380535	7.744165030796085	0.9888769756896704
0.01427681191126435	3.3361178006751275e-23	8.291419757037341e9	8.080899597962186e26	2458.0877782249213	2486.9318286380535	7.744165030796085	0.9888769756896704
0.01433042053488745	3.3935731999054494e-23	8.291419757037341e9	8.080899597962186e26	2458.0877782249213	2486.9318286380535	7.744165030796085	0.9888769756896704
0.014384230455869137	3.4516782578245296e-23	8.291419757037341e9	8.080899597962186e26	2458.0877782249213	2486.9318286380535	7.744165030796085	0.9888769756896704
0.014438242430069638	3.51044032024177e-23	8.291419757037341e9	8.080899597962186e26	2458.0877782249213	2486.9318286380535	7.744165030796085	0.9888769756896704
0.014492457216187396	3.56986681602698e-23	8.291419757037341e9	8.080899597962186e26	2458.0877782249213	2486.9318286380535	7.744165030796085	0.9888769756896704
0.014546875575769726	3.629965258049561e-23	8.291419757037341e9	8.080899597962186e26	2458.0877782249213	2486.9318286380535	7.744165030796085	0.9888769756896704
0.014601498273223506	3.690743244128291e-23	8.291419757037341e9	8.080899597962186e26	2458.0877782249213	2486.9318286380535	7.744165030796085	0.9888769756896704
0.014656326075825917	3.7522084579918805e-23	8.291419757037341e9	8.080899597962186e26	2458.0877782249213	2486.9318286380535	7.744165030796085	0.9888769756896704
0.014711359753735232	3.814368670250361e-23	8.291419757037338e9	8.080899597962182e26	2458.0877782249204	2486.931828638053	7.744165030796084	0.9888769756896704
0.014766600080001614	3.8772317393774685e-23	8.291419757037338e9	8.080899597962182e26	2458.0877782249204	2486.931828638053	7.744165030796084	0.9888769756896704
0.014822047830577991	3.9408056127041374e-23	8.291419757037338e9	8.080899597962182e26	2458.0877782249204	2486.931828638053	7.744165030796084	0.9888769756896704
0.014877703784330953	4.005098327423228e-23	8.291419757037338e9	8.080899597962182e26	2458.0877782249204	2486.931828638053	7.744165030796084	0.9888769756896704
0.014933568723051682	4.0701180116055963e-23	8.291419757037338e9	8.080899597962182e26	2458.0877782249204	2486.931828638053	7.744165030796084	0.9888769756896704
0.01498964343146695	4.13587288522769e-23	8.291419757037338e9	8.080899597962182e26	2458.0877782249204	2486.931828638053	7.744165030796084	0.9888769756896704
0.015045928697250131	4.202371261210732e-23	8.291419757037338e9	8.080899597962182e26	2458.0877782249204	2486.931828638053	7.744165030796084	0.9888769756896704
0.015102425311032267	4.269621546471656e-23	8.291419757037338e9	8.080899597962182e26	2458.0877782249204	2486.931828638053	7.744165030796084	0.9888769756896704
0.015159134066413171	4.337632242985937e-23	8.291419757037338e9	8.080899597962182e26	2458.0877782249204	2486.931828638053	7.744165030796084	0.9888769756896704
0.015216055759972591	4.4064119488624566e-23	8.291419757037338e9	8.080899597962182e26	2458.0877782249204	2486.931828638053	7.744165030796084	0.9888769756896704
0.015273191191281375	4.475969359430465e-23	8.291419757037338e9	8.080899597962182e26	2458.0877782249204	2486.931828638053	7.744165030796084	0.9888769756896704
0.015330541162912721	4.5463132683389e-23	8.291419757037338e9	8.080899597962182e26	2458.0877782249204	2486.931828638053	7.744165030796084	0.9888769756896704
0.015388106480453436	4.6174525686680794e-23	8.291419757037338e9	8.080899597962182e26	2458.0877782249204	2486.931828638053	7.744165030796084	0.9888769756896704
0.015445887952515273	4.6893962540540235e-23	8.291419757037338e9	8.080899597962182e26	2458.0877782249204	2486.931828638053	7.744165030796084	0.9888769756896704
0.015503886390746267	4.7621534198254174e-23	8.291419757037338e9	8.080899597962182e26	2458.0877782249204	2486.931828638053	7.744165030796084	0.9888769756896704
0.015562102609842145	4.835733264153502e-23	8.291419757037338e9	8.080899597962182e26	2458.0877782249204	2486.931828638053	7.744165030796084	0.9888769756896704
0.015620537427557776	4.910145089214912e-23	8.291419757037338e9	8.080899597962182e26	2458.0877782249204	2486.931828638053	7.744165030796084	0.9888769756896704
0.01567919166471865	4.985398302367696e-23	8.291419757037338e9	8.080899597962182e26	2458.0877782249204	2486.931828638053	7.744165030796084	0.9888769756896704
0.01573806614523241	5.061502417340614e-23	8.291419757037338e9	8.080899597962182e26	2458.0877782249204	2486.931828638053	7.744165030796084	0.9888769756896704
0.015797161696100424	5.138467055435894e-23	8.291419757037338e9	8.080899597962182e26	2458.0877782249204	2486.931828638053	7.744165030796084	0.9888769756896704
0.015856479147429412	5.216301946745597e-23	8.291419757037338e9	8.080899597962182e26	2458.0877782249204	2486.931828638053	7.744165030796084	0.9888769756896704
0.015916019332443083	5.295016931381686e-23	8.291419757037338e9	8.080899597962182e26	2458.0877782249204	2486.931828638053	7.744165030796084	0.9888769756896704
0.015975783087493867	5.374621960720091e-23	8.291419757037338e9	8.080899597962182e26	2458.0877782249204	2486.931828638053	7.744165030796084	0.9888769756896704
