r[m]	M[Msun]	rho[g/cm^3]	P[N/m^2]	n_e[pm^-3]	n_p[pm^-3]	muF_e[MeV]	B
0.010000000000000004	3.9373419679930717e-38	1.1399986627992283e10	1.2357894301292142e27	3378.5198513027876	3418.0692501880435	8.66407248891753	0.9876241914457057
0.010037366104589362	2.7253908050043724e-25	1.1399986627992283e10	1.2357894301292142e27	3378.5198513027876	3418.0692501880435	8.66407248891753	0.9876241914457057
0.010074871831755981	5.504025498281523e-25	1.1399986627992283e10	1.2357894301292142e27	3378.5198513027876	3418.0692501880435	8.66407248891753	0.9876241914457057
0.010112517703214956	8.297719060243042e-25	1.1399986627992283e10	1.2357894301292142e27	3378.5198513027876	3418.0692501880435	8.66407248891753	0.9876241914457057
0.010150304242630963	1.110983710815229e-24	1.1399986627992283e10	1.2357894301292142e27	3378.5198513027876	3418.0692501880435	8.66407248891753	0.9876241914457057
0.010188231975625359	1.3981679541133404e-24	1.1399986627992283e10	1.2357894301292142e27	3378.5198513027876	3418.0692501880435	8.66407248891753	0.9876241914457057
0.010226301429783587	1.687530005020461e-24	1.1399986627992283e10	1.2357894301292142e27	3378.5198513027876	3418.0692501880435	8.66407248891753	0.9876241914457057
0.010264513134662347	1.9767252685985193e-24	1.1399986627992283e10	1.2357894301292142e27	3378.5198513027876	3418.0692501880435	8.66407248891753	0.9876241914457057
0.010302867621797211	2.268891167254143e-24	1.1399986627992283e10	1.2357894301292142e27	3378.5198513027876	3418.0692501880435	8.66407248891753	0.9876241914457057
0.01034136542470989	2.564355907090264e-24	1.1399986627992283e10	1.2357894301292142e27	3378.5198513027876	3418.0692501880435	8.66407248891753	0.9876241914457057
0.010380007078915537	2.8631483397849797e-24	1.1399986627992283e10	1.2357894301292142e27	3378.5198513027876	3418.0692501880435	8.66407248891753	0.9876241914457057
0.010418793121930442	3.1652975485520538e-24	1.1399986627992283e10	1.2357894301292142e27	3378.5198513027876	3418.0692501880435	8.66407248891753	0.9876241914457057
0.010457724093279379	3.4708328499313414e-24	1.1399986627992283e10	1.2357894301292142e27	3378.5198513027876	3418.0692501880435	8.66407248891753	0.9876241914457057
0.010496800534502991	3.779790732785337e-24	1.1399986627992283e10	1.2357894301292142e27	3378.5198513027876	3418.0692501880435	8.66407248891753	0.9876241914457057
0.010536022989165578	4.0922405919204574e-24	1.1399986627992283e10	1.2357894301292142e27	3378.5198513027876	3418.0692501880435	8.66407248891753	0.9876241914457057
0.010575392002862482	4.408219226901267e-24	1.1399986627992283e10	1.2357894301292142e27	3378.5198513027876	3418.0692501880435	8.66407248891753	0.9876241914457057
0.010614908123227768	4.727757502668098e-24	1.1399986627992283e10	1.2357894301292142e27	3378.5198513027876	3418.0692501880435	8.66407248891753	0.9876241914457057
0.010654571899941664	5.050886531858497e-24	1.1399986627992283e10	1.2357894301292142e27	3378.5198513027876	3418.0692501880435	8.66407248891753	0.9876241914457057
0.01069438388473847	5.377637676725906e-24	1.1399986627992283e10	1.2357894301292142e27	3378.5198513027876	3418.0692501880435	8.66407248891753	0.9876241914457057
0.010734344631414103	5.708048943764992e-24	1.1399986627992283e10	1.2357894301292142e27	3378.5198513027876	3418.0692501880435	8.66407248891753	0.9876241914457057
0.010774454695833666	6.0421936082641864e-24	1.1399986627992283e10	1.2357894301292142e27	3378.5198513027876	3418.0692501880435	8.66407248891753	0.9876241914457057
0.010814714635939448	6.380111741709567e-24	1.1399986627992283e10	1.2357894301292142e27	3378.5198513027876	3418.0692501880435	8.66407248891753	0.9876241914457057
0.01085512501175855	6.721836348477534e-24	1.1399986627992283e10	1.2357894301292142e27	3378.5198513027876	3418.0692501880435	8.66407248891753	0.9876241914457057
0.010895686385410542	7.067400697808584e-24	1.1399986627992283e10	1.2357894301292142e27	3378.5198513027876	3418.0692501880435	8.66407248891753	0.9876241914457057
0.010936399321115552	7.416838325858845e-24	1.1399986627992283e10	1.2357894301292142e27	3378.5198513027876	3418.0692501880435	8.66407248891753	0.9876241914457057
0.01097726438520193	7.770185825420861e-24	1.1399986627992283e10	1.2357894301292142e27	3378.5198513027876	3418.0692501880435	8.66407248891753	0.9876241914457057
0.011018282146114226	8.127493864973467e-24	1.1399986627992283e10	1.2357894301292142e27	3378.5198513027876	3418.0692501880435	8.66407248891753	0.9876241914457057
0.0110594531744209	8.488808636537702e-24	1.1399986627992283e10	1.2357894301292142e27	3378.5198513027876	3418.0692501880435	8.66407248891753	0.9876241914457057
0.011100778042822553	8.854175729216669e-24	1.1399986627992283e10	1.2357894301292142e27	3378.5198513027876	3418.0692501880435	8.66407248891753	0.9876241914457057
0.011142257326159734	9.223641251134821e-24	1.1399986627992283e10	1.2357894301292142e27	3378.5198513027876	3418.0692501880435	8.66407248891753	0.9876241914457057
0.011183891601420817	9.597251835330592e-24	1.1399986627992283e10	1.2357894301292142e27	3378.5198513027876	3418.0692501880435	8.66407248891753	0.9876241914457057
0.01122568144775029	9.97505464571928e-24	1.1399986627992283e10	1.2357894301292142e27	3378.5198513027876	3418.0692501880435	8.66407248891753	0.9876241914457057
0.011267627446456683	1.0357097383120025e-23	1.1399986627992283e10	1.2357894301292142e27	3378.5198513027876	3418.0692501880435	8.66407248891753	0.9876241914457057
0.011309730181020503	1.074342829135071e-23	1.1399986627992283e10	1.2357894301292142e27	3378.5198513027876	3418.0692501880435	8.66407248891753	0.9876241914457057
0.011351990237102648	1.1134096163396062e-23	1.1399986627992283e10	1.2357894301292142e27	3378.5198513027876	3418.0692501880435	8.66407248891753	0.9876241914457057
0.011394408202552343	1.1529150347640862e-23	1.1399986627992283e10	1.2357894301292142e27	3378.5198513027876	3418.0692501880435	8.66407248891753	0.9876241914457057
0.01143698466741543	1.1928640754176834e-23	1.1399986627992283e10	1.2357894301292142e27	3378.5198513027876	3418.0692501880435	8.66407248891753	0.9876241914457057
0.011479720223942384	1.2332617861178051e-23	1.1399986627992283e10	1.2357894301292142e27	3378.5198513027876	3418.0692501880435	8.66407248891753	0.9876241914457057
0.011522615466596822	1.2741132721352758e-23	1.1399986627992283e10	1.2357894301292142e27	3378.5198513027876	3418.0692501880435	8.66407248891753	0.9876241914457057
0.011565670992063652	1.3154236968464936e-23	1.1399986627992283e10	1.2357894301292142e27	3378.5198513027876	3418.0692501880435	8.66407248891753	0.9876241914457057
0.011608887399257207	1.3571982823928784e-23	1.1399986627992283e10	1.2357894301292142e27	3378.5198513027876	3418.0692501880435	8.66407248891753	0.9876241914457057
0.01165226528932988	1.3994423103482693e-23	1.1399986627992283e10	1.2357894301292142e27	3378.5198513027876	3418.0692501880435	8.66407248891753	0.9876241914457057
0.011695805265680285	1.4421611223933918e-23	1.1399986627992283e10	1.2357894301292142e27	3378.5198513027876	3418.0692501880435	8.66407248891753	0.9876241914457057
0.01173950793396175	1.4853601209982322e-23	1.1399986627992283e10	1.2357894301292142e27	3378.5198513027876	3418.0692501880435	8.66407248891753	0.9876241914457057
0.011783373902090551	1.5290447701118784e-23	1.1399986627992283e10	1.2357894301292142e27	3378.5198513027876	3418.0692501880435	8.66407248891753	0.9876241914457057
0.011827403780254655	1.573220595860615e-23	1.1399986627992283e10	1.2357894301292142e27	3378.5198513027876	3418.0692501880435	8.66407248891753	0.9876241914457057
0.011871598180922061	1.6178931872535324e-23	1.1399986627992283e10	1.2357894301292142e27	3378.5198513027876	3418.0692501880435	8.66407248891753	0.9876241914457057
0.011915957718849176	1.663068196896075e-23	1.1399986627992283e10	1.2357894301292142e27	3378.5198513027876	3418.0692501880435	8.66407248891753	0.9876241914457057
0.011960483011089667	1.7087513417121623e-23	1.1399986627992283e10	1.2357894301292142e27	3378.5198513027876	3418.0692501880435	8.66407248891753	0.9876241914457057
0.012005174677002876	1.7549484036739827e-23	1.1399986627992283e10	1.2357894301292142e27	3378.5198513027876	3418.0692501880435	8.66407248891753	0.9876241914457057
0.012050033338262316	1.8016652305401024e-23	1.1399986627992283e10	1.2357894301292142e27	3378.5198513027876	3418.0692501880435	8.66407248891753	0.9876241914457057
0.012095059618864592	1.8489077366023435e-23	1.1399986627992283e10	1.2357894301292142e27	3378.5198513027876	3418.0692501880435	8.66407248891753	0.9876241914457057
0.012140254145137894	1.8966819034406367e-23	1.1399986627992283e10	1.2357894301292142e27	3378.5198513027876	3418.0692501880435	8.66407248891753	0.9876241914457057
0.012185617545750805	1.9449937806867048e-23	1.1399986627992283e10	1.2357894301292142e27	3378.5198513027876	3418.0692501880435	8.66407248891753	0.9876241914457057
0.01223115045172085	1.9938494867960954e-23	1.1399986627992283e10	1.2357894301292142e27	3378.5198513027876	3418.0692501880435	8.66407248891753	0.9876241914457057
0.012276853496423566	2.0432552098294664e-23	1.1399986627992283e10	1.2357894301292142e27	3378.5198513027876	3418.0692501880435	8.66407248891753	0.9876241914457057
0.012322727315601176	2.0932172082422545e-23	1.139998662799228e10	1.2357894301292135e27	3378.519851302786	3418.069250188042	8.664072488917528	0.9876241914457057
0.012368772547371266	2.1437418116832558e-23	1.139998662799228e10	1.2357894301292135e27	3378.519851302786	3418.069250188042	8.664072488917528	0.9876241914457057
0.012414989832235972	2.194835421802758e-23	1.139998662799228e10	1.2357894301292135e27	3378.519851302786	3418.069250188042	8.664072488917528	0.9876241914457057
0.012461379813090737	2.246504513069311e-23	1.139998662799228e10	1.2357894301292135e27	3378.519851302786	3418.069250188042	8.664072488917528	0.9876241914457057
0.012507943135233103	2.2987556335957524e-23	1.139998662799228e10	1.2357894301292135e27	3378.519851302786	3418.069250188042	8.664072488917528	0.9876241914457057
0.012554680446371988	2.3515954059750785e-23	1.139998662799228e10	1.2357894301292135e27	3378.519851302786	3418.069250188042	8.664072488917528	0.9876241914457057
0.012601592396636527	2.4050305281252473e-23	1.139998662799228e10	1.2357894301292135e27	3378.519851302786	3418.069250188042	8.664072488917528	0.9876241914457057
0.012648679638585044	2.4590677741436505e-23	1.139998662799228e10	1.2357894301292135e27	3378.519851302786	3418.069250188042	8.664072488917528	0.9876241914457057
0.012695942827214335	2.5137139951715952e-23	1.139998662799228e10	1.2357894301292135e27	3378.519851302786	3418.069250188042	8.664072488917528	0.9876241914457057
0.012743382619968583	2.5689761202680634e-23	1.139998662799228e10	1.2357894301292135e27	3378.519851302786	3418.069250188042	8.664072488917528	0.9876241914457057
0.012790999676748576	2.6248611572937185e-23	1.139998662799228e10	1.2357894301292135e27	3378.519851302786	3418.069250188042	8.664072488917528	0.9876241914457057
0.012838794659920988	2.6813761938049136e-23	1.139998662799228e10	1.2357894301292135e27	3378.519851302786	3418.069250188042	8.664072488917528	0.9876241914457057
0.012886768234327377	2.738528397957462e-23	1.139998662799228e10	1.2357894301292135e27	3378.519851302786	3418.069250188042	8.664072488917528	0.9876241914457057
0.012934921067293673	2.796325019421177e-23	1.139998662799228e10	1.2357894301292135e27	3378.519851302786	3418.069250188042	8.664072488917528	0.9876241914457057
0.012983253828639258	2.8547733903042186e-23	1.139998662799228e10	1.2357894301292135e27	3378.519851302786	3418.069250188042	8.664072488917528	0.9876241914457057
0.013031767190686369	2.913880926088252e-23	1.139998662799228e10	1.2357894301292135e27	3378.519851302786	3418.069250188042	8.664072488917528	0.9876241914457057
0.013080461828269533	2.9736551265742005e-23	1.139998662799228e10	1.2357894301292135e27	3378.519851302786	3418.069250188042	8.664072488917528	0.9876241914457057
0.013129338418744755	3.0341035768383205e-23	1.139998662799228e10	1.2357894301292135e27	3378.519851302786	3418.069250188042	8.664072488917528	0.9876241914457057
0.013178397641999172	3.0952339481996713e-23	1.139998662799228e10	1.2357894301292135e27	3378.519851302786	3418.069250188042	8.664072488917528	0.9876241914457057
0.013227640180460307	3.1570539991979477e-23	1.139998662799228e10	1.2357894301292135e27	3378.519851302786	3418.069250188042	8.664072488917528	0.9876241914457057
0.013277066719105654	3.21957157658277e-23	1.139998662799228e10	1.2357894301292135e27	3378.519851302786	3418.069250188042	8.664072488917528	0.9876241914457057
0.01332667794547228	3.2827946163141506e-23	1.139998662799228e10	1.2357894301292135e27	3378.519851302786	3418.069250188042	8.664072488917528	0.9876241914457057
0.013376474549666202	3.346730464563163e-23	1.139998662799228e10	1.2357894301292135e27	3378.519851302786	3418.069250188042	8.664072488917528	0.9876241914457057
0.0134264572243722	3.411385749403414e-23	1.139998662799228e10	1.2357894301292135e27	3378.519851302786	3418.069250188042	8.664072488917528	0.9876241914457057
0.013476626664863272	3.4767685206587606e-23	1.139998662799228e10	1.2357894301292135e27	3378.519851302786	3418.069250188042	8.664072488917528	0.9876241914457057
0.013526983569010373	3.542886963839218e-23	1.139998662799228e10	1.2357894301292135e27	3378.519851302786	3418.069250188042	8.664072488917528	0.9876241914457057
0.013577528637292217	3.6097493565563934e-23	1.139998662799228e10	1.2357894301292135e27	3378.519851302786	3418.069250188042	8.664072488917528	0.9876241914457057
0.013628262572804825	3.6773640695595333e-23	1.139998662799228e10	1.2357894301292135e27	3378.519851302786	3418.069250188042	8.664072488917528	0.9876241914457057
0.013679186081271518	3.7457395677837733e-23	1.139998662799228e10	1.2357894301292135e27	3378.519851302786	3418.069250188042	8.664072488917528	0.9876241914457057
0.013730299871052528	3.814884411409615e-23	1.139998662799228e10	1.2357894301292135e27	3378.519851302786	3418.069250188042	8.664072488917528	0.9876241914457057
0.013781604653155055	3.884807256934886e-23	1.139998662799228e10	1.2357894301292135e27	3378.519851302786	3418.069250188042	8.664072488917528	0.9876241914457057
0.013833101141242981	3.955516858258232e-23	1.139998662799228e10	1.2357894301292135e27	3378.519851302786	3418.069250188042	8.664072488917528	0.9876241914457057
0.013884790051646865	4.027022067775152e-23	1.139998662799228e10	1.2357894301292135e27	3378.519851302786	3418.069250188042	8.664072488917528	0.9876241914457057
0.013936672103374006	4.099331837486393e-23	1.139998662799228e10	1.2357894301292135e27	3378.519851302786	3418.069250188042	8.664072488917528	0.9876241914457057
0.013988748018118233	4.172455220118382e-23	1.139998662799228e10	1.2357894301292135e27	3378.519851302786	3418.069250188042	8.664072488917528	0.9876241914457057
0.014041018520270178	4.246401370256914e-23	1.139998662799228e10	1.2357894301292135e27	3378.519851302786	3418.069250188042	8.664072488917528	0.9876241914457057
0.014093484336927163	4.32117954549297e-23	1.139998662799228e10	1.2357894301292135e27	3378.519851302786	3418.069250188042	8.664072488917528	0.9876241914457057
0.014146146197903373	4.396799107581798e-23	1.139998662799228e10	1.2357894301292135e27	3378.519851302786	3418.069250188042	8.664072488917528	0.9876241914457057
0.01419900483574012	4.4732695236150986e-23	1.139998662799228e10	1.2357894301292135e27	3378.519851302786	3418.069250188042	8.664072488917528	0.9876241914457057
0.014252060985715827	4.5506003672059594e-23	1.139998662799228e10	1.2357894301292135e27	3378.519851302786	3418.069250188042	8.664072488917528	0.9876241914457057
0.014305315385856474	4.628801319687712e-23	1.139998662799228e10	1.2357894301292135e27	3378.519851302786	3418.069250188042	8.664072488917528	0.9876241914457057
0.01435876877694567	4.7078821713257114e-23	1.139998662799228e10	1.2357894301292135e27	3378.519851302786	3418.069250188042	8.664072488917528	0.9876241914457057
0.014412421902535047	4.787852822543127e-23	1.139998662799228e10	1.2357894301292135e27	3378.519851302786	3418.069250188042	8.664072488917528	0.9876241914457057
0.014466275508954685	4.8687232851605465e-23	1.139998662799228e10	1.2357894301292135e27	3378.519851302786	3418.069250188042	8.664072488917528	0.9876241914457057
0.01452033034532329	4.95050368364908e-23	1.139998662799228e10	1.2357894301292135e27	3378.519851302786	3418.069250188042	8.664072488917528	0.9876241914457057
0.014574587163558859	5.0332042563982596e-23	1.139998662799228e10	1.2357894301292135e27	3378.519851302786	3418.069250188042	8.664072488917528	0.9876241914457057
0.014629046718388916	5.1168353569974675e-23	1.139998662799228e10	1.2357894301292135e27	3378.519851302786	3418.069250188042	8.664072488917528	0.9876241914457057
0.014683709767361107	5.2014074555322993e-23	1.139998662799228e10	1.2357894301292135e27	3378.519851302786	3418.069250188042	8.664072488917528	0.9876241914457057
0.014738577070853838	5.2869311398955065e-23	1.1399986627992275e10	1.2357894301292128e27	3378.5198513027844	3418.069250188041	8.664072488917526	0.9876241914457057
0.01479364939208662	5.373417117112162e-23	1.1399986627992275e10	1.2357894301292128e27	3378.5198513027844	3418.069250188041	8.664072488917526	0.9876241914457057
0.014848927497130952	5.460876214680543e-23	1.1399986627992275e10	1.2357894301292128e27	3378.5198513027844	3418.069250188041	8.664072488917526	0.9876241914457057
0.01490441215492074	5.549319381927283e-23	1.1399986627992275e10	1.2357894301292128e27	3378.5198513027844	3418.069250188041	8.664072488917526	0.9876241914457057
0.014960104137263109	5.638757691378347e-23	1.1399986627992275e10	1.2357894301292128e27	3378.5198513027844	3418.069250188041	8.664072488917526	0.9876241914457057
0.015016004218849206	5.729202340145342e-23	1.1399986627992275e10	1.2357894301292128e27	3378.5198513027844	3418.069250188041	8.664072488917526	0.9876241914457057
0.01507211317726478	5.820664651327021e-23	1.1399986627992275e10	1.2357894301292128e27	3378.5198513027844	3418.069250188041	8.664072488917526	0.9876241914457057
0.015128431793001242	5.913156075427238e-23	1.1399986627992275e10	1.2357894301292128e27	3378.5198513027844	3418.069250188041	8.664072488917526	0.9876241914457057
0.015184960849466302	6.006688191788146e-23	1.1399986627992275e10	1.2357894301292128e27	3378.5198513027844	3418.069250188041	8.664072488917526	0.9876241914457057
0.015241701132994948	6.101272710039975e-23	1.1399986627992275e10	1.2357894301292128e27	3378.5198513027844	3418.069250188041	8.664072488917526	0.9876241914457057
0.015298653432860502	6.196921471567192e-23	1.1399986627992275e10	1.2357894301292128e27	3378.5198513027844	3418.069250188041	8.664072488917526	0.9876241914457057
0.015355818541285362	6.293646450990599e-23	1.1399986627992275e10	1.2357894301292128e27	3378.5198513027844	3418.069250188041	8.664072488917526	0.9876241914457057
0.015413197253452282	6.391459757666882e-23	1.1399986627992275e10	1.2357894301292128e27	3378.5198513027844	3418.069250188041	8.664072488917526	0.9876241914457057
0.015470790367515202	6.490373637204272e-23	1.1399986627992275e10	1.2357894301292128e27	3378.5198513027844	3418.069250188041	8.664072488917526	0.9876241914457057
0.015528598684610463	6.59040047299577e-23	1.1399986627992275e10	1.2357894301292128e27	3378.5198513027844	3418.069250188041	8.664072488917526	0.9876241914457057
0.015586623008868027	6.691552787769636e-23	1.1399986627992275e10	1.2357894301292128e27	3378.5198513027844	3418.069250188041	8.664072488917526	0.9876241914457057
0.015644864147422454	6.793843245156772e-23	1.1399986627992275e10	1.2357894301292128e27	3378.5198513027844	3418.069250188041	8.664072488917526	0.9876241914457057
0.015703322910424374	6.897284651276558e-23	1.1399986627992275e10	1.2357894301292128e27	3378.5198513027844	3418.069250188041	8.664072488917526	0.9876241914457057
0.015762000111051513	7.001889956339688e-23	1.1399986627992275e10	1.2357894301292128e27	3378.5198513027844	3418.069250188041	8.664072488917526	0.9876241914457057
0.015820896565520246	7.107672256269849e-23	1.1399986627992275e10	1.2357894301292128e27	3378.5198513027844	3418.069250188041	8.664072488917526	0.9876241914457057
