r[m]	M[Msun]	rho[g/cm^3]	P[N/m^2]	n_e[pm^-3]	n_p[pm^-3]	muF_e[MeV]	B
0.009999999999999985	-9.063416961841976e-39	9.827246662255853e8	4.702093467431139e25	293.7098685960518	885.8228296937996	3.5792132330941553	0.9945873935236131
0.010038725988593922	2.4390472584186312e-26	9.827246662255853e8	4.702093467431139e25	293.7098685960518	885.8228296937996	3.5792132330941553	0.9945873935236131
0.010077601947407117	4.944881425783083e-26	9.827246662255853e8	4.702093467431139e25	293.7098685960518	885.8228296937996	3.5792132330941553	0.9945873935236131
0.010116628457214108	7.499538026237955e-26	9.827246662255853e8	4.702093467431139e25	293.7098685960518	885.8228296937996	3.5792132330941553	0.9945873935236131
0.010155806101038424	1.0084623876673875e-25	9.827246662255853e8	4.702093467431139e25	293.7098685960518	885.8228296937996	3.5792132330941553	0.9945873935236131
0.010195135464161528	1.2681310100277778e-25	9.827246662255853e8	4.702093467431139e25	293.7098685960518	885.8228296937996	3.5792132330941553	0.9945873935236131
0.010234617134131404	1.527032504205643e-25	9.827246662255853e8	4.702093467431139e25	293.7098685960518	885.8228296937996	3.5792132330941553	0.9945873935236131
0.010274251700771411	1.7880358683241547e-25	9.827246662255853e8	4.702093467431139e25	293.7098685960518	885.8228296937996	3.5792132330941553	0.9945873935236131
0.010314039756188942	2.056295531853573e-25	9.827246662255853e8	4.702093467431139e25	293.7098685960518	885.8228296937996	3.5792132330941553	0.9945873935236131
0.0103539818947845	2.329903297286214e-25	9.827246662255853e8	4.702093467431139e25	293.7098685960518	885.8228296937996	3.5792132330941553	0.9945873935236131
0.010394078713260424	2.6068409098711534e-25	9.827246662255853e8	4.702093467431139e25	293.7098685960518	885.8228296937996	3.5792132330941553	0.9945873935236131
0.010434330810629843	2.8850423060392108e-25	9.827246662255853e8	4.702093467431139e25	293.7098685960518	885.8228296937996	3.5792132330941553	0.9945873935236131
0.010474738788225666	3.1623928360132093e-25	9.827246662255853e8	4.702093467431139e25	293.7098685960518	885.8228296937996	3.5792132330941553	0.9945873935236131
0.010515303249709396	3.44255779803143e-25	9.827246662255853e8	4.702093467431139e25	293.7098685960518	885.8228296937996	3.5792132330941553	0.9945873935236131
0.010556024801080397	3.731537946109066e-25	9.827246662255853e8	4.702093467431139e25	293.7098685960518	885.8228296937996	3.5792132330941553	0.9945873935236131
0.010596904050684792	4.0283185246825274e-25	9.827246662255853e8	4.702093467431139e25	293.7098685960518	885.8228296937996	3.5792132330941553	0.9945873935236131
0.01063794160922462	4.331832333694784e-25	9.827246662255853e8	4.702093467431139e25	293.7098685960518	885.8228296937996	3.5792132330941553	0.9945873935236131
0.010679138089766801	4.6409861205504655e-25	9.827246662255853e8	4.702093467431139e25	293.7098685960518	885.8228296937996	3.5792132330941553	0.9945873935236131
0.010720494107752538	4.954660152801355e-25	9.827246662255853e8	4.702093467431139e25	293.7098685960518	885.8228296937996	3.5792132330941553	0.9945873935236131
0.010762010281006354	5.271707784817835e-25	9.827246662255853e8	4.702093467431139e25	293.7098685960518	885.8228296937996	3.5792132330941553	0.9945873935236131
0.010803687229745406	5.590955018372624e-25	9.827246662255853e8	4.702093467431139e25	293.7098685960518	885.8228296937996	3.5792132330941553	0.9945873935236131
0.010845525576588565	5.9112000570536325e-25	9.827246662255853e8	4.702093467431139e25	293.7098685960518	885.8228296937996	3.5792132330941553	0.9945873935236131
0.010887525946565986	6.231212854431229e-25	9.827246662255853e8	4.702093467431139e25	293.7098685960518	885.8228296937996	3.5792132330941553	0.9945873935236131
0.010929688967128275	6.549734655891631e-25	9.827246662255853e8	4.702093467431139e25	293.7098685960518	885.8228296937996	3.5792132330941553	0.9945873935236131
0.010972015268155902	6.866710093340932e-25	9.827246662255853e8	4.702093467431139e25	293.7098685960518	885.8228296937996	3.5792132330941553	0.9945873935236131
0.011014505481968657	7.191802275870666e-25	9.827246662255853e8	4.702093467431139e25	293.7098685960518	885.8228296937996	3.5792132330941553	0.9945873935236131
0.011057160243334913	7.526350239585608e-25	9.827246662255853e8	4.702093467431139e25	293.7098685960518	885.8228296937996	3.5792132330941553	0.9945873935236131
0.011099980189481383	7.869090451866974e-25	9.827246662255853e8	4.702093467431139e25	293.7098685960518	885.8228296937996	3.5792132330941553	0.9945873935236131
0.01114296596010246	8.218728492192035e-25	9.827246662255853e8	4.702093467431139e25	293.7098685960518	885.8228296937996	3.5792132330941553	0.9945873935236131
0.01118611819736986	8.573938545292627e-25	9.827246662255853e8	4.702093467431139e25	293.7098685960518	885.8228296937996	3.5792132330941553	0.9945873935236131
0.011229437545942038	8.933362887180499e-25	9.827246662255853e8	4.702093467431139e25	293.7098685960518	885.8228296937996	3.5792132330941553	0.9945873935236131
0.011272924652974085	9.295611363951913e-25	9.827246662255853e8	4.702093467431139e25	293.7098685960518	885.8228296937996	3.5792132330941553	0.9945873935236131
0.011316580168127222	9.659260863270427e-25	9.827246662255853e8	4.702093467431139e25	293.7098685960518	885.8228296937996	3.5792132330941553	0.9945873935236131
0.011360404743578594	1.0022854778438352e-24	9.827246662255853e8	4.702093467431139e25	293.7098685960518	885.8228296937996	3.5792132330941553	0.9945873935236131
0.011404399034030826	1.0384902464955674e-24	9.827246662255853e8	4.702093467431139e25	293.7098685960518	885.8228296937996	3.5792132330941553	0.9945873935236131
0.011448563696722083	1.0744505447797396e-24	9.827246662255853e8	4.702093467431139e25	293.7098685960518	885.8228296937996	3.5792132330941553	0.9945873935236131
0.011492899391435704	1.1107204907956139e-24	9.827246662255853e8	4.702093467431139e25	293.7098685960518	885.8228296937996	3.5792132330941553	0.9945873935236131
0.011537406780510103	1.1474701555001974e-24	9.827246662255853e8	4.702093467431139e25	293.7098685960518	885.8228296937996	3.5792132330941553	0.9945873935236131
0.011582086528848715	1.1847040293732092e-24	9.827246662255853e8	4.702093467431139e25	293.7098685960518	885.8228296937996	3.5792132330941553	0.9945873935236131
0.011626939303929731	1.2224266407144983e-24	9.827246662255853e8	4.702093467431139e25	293.7098685960518	885.8228296937996	3.5792132330941553	0.9945873935236131
0.011671965775816367	1.2606425559493054e-24	9.827246662255853e8	4.702093467431139e25	293.7098685960518	885.8228296937996	3.5792132330941553	0.9945873935236131
0.011717166617166675	1.299356379935516e-24	9.827246662255853e8	4.702093467431139e25	293.7098685960518	885.8228296937996	3.5792132330941553	0.9945873935236131
0.011762542503243689	1.3385727562735874e-24	9.827246662255853e8	4.702093467431139e25	293.7098685960518	885.8228296937996	3.5792132330941553	0.9945873935236131
0.011808094111925318	1.3782963676186824e-24	9.827246662255853e8	4.702093467431139e25	293.7098685960518	885.8228296937996	3.5792132330941553	0.9945873935236131
0.011853822123714773	1.4185319359956898e-24	9.827246662255853e8	4.702093467431139e25	293.7098685960518	885.8228296937996	3.5792132330941553	0.9945873935236131
0.011899727221750525	1.4592842231163035e-24	9.827246662255853e8	4.702093467431139e25	293.7098685960518	885.8228296937996	3.5792132330941553	0.9945873935236131
0.011945810091816571	1.5005580306988412e-24	9.827246662255853e8	4.702093467431139e25	293.7098685960518	885.8228296937996	3.5792132330941553	0.9945873935236131
0.01199207142235272	1.5423582007905602e-24	9.827246662255853e8	4.702093467431139e25	293.7098685960518	885.8228296937996	3.5792132330941553	0.9945873935236131
0.012038511904464689	1.5846896160923246e-24	9.827246662255853e8	4.702093467431139e25	293.7098685960518	885.8228296937996	3.5792132330941553	0.9945873935236131
0.012085132231934716	1.627557200286284e-24	9.827246662255853e8	4.702093467431139e25	293.7098685960518	885.8228296937996	3.5792132330941553	0.9945873935236131
0.012131933101231727	1.6709659183656628e-24	9.827246662255853e8	4.702093467431139e25	293.7098685960518	885.8228296937996	3.5792132330941553	0.9945873935236131
0.012178915211521847	1.714920776967469e-24	9.827246662255853e8	4.702093467431139e25	293.7098685960518	885.8228296937996	3.5792132330941553	0.9945873935236131
0.012226079264678637	1.759426824707517e-24	9.827246662255853e8	4.702093467431139e25	293.7098685960518	885.8228296937996	3.5792132330941553	0.9945873935236131
0.012273425965293887	1.8044891525185995e-24	9.827246662255853e8	4.702093467431139e25	293.7098685960518	885.8228296937996	3.5792132330941553	0.9945873935236131
0.012320956020687935	1.8501128939908133e-24	9.827246662255853e8	4.702093467431139e25	293.7098685960518	885.8228296937996	3.5792132330941553	0.9945873935236131
0.01236867014092029	1.8963032257148657e-24	9.827246662255853e8	4.702093467431139e25	293.7098685960518	885.8228296937996	3.5792132330941553	0.9945873935236131
0.012416569038800285	1.94306536762805e-24	9.827246662255853e8	4.702093467431139e25	293.7098685960518	885.8228296937996	3.5792132330941553	0.9945873935236131
0.012464653429897525	1.9904045833627182e-24	9.827246662255853e8	4.702093467431139e25	293.7098685960518	885.8228296937996	3.5792132330941553	0.9945873935236131
0.012512924032552884	2.038326180598024e-24	9.827246662255853e8	4.702093467431139e25	293.7098685960518	885.8228296937996	3.5792132330941553	0.9945873935236131
0.012561381567889026	2.0868355114138986e-24	9.827246662255853e8	4.702093467431139e25	293.7098685960518	885.8228296937996	3.5792132330941553	0.9945873935236131
0.012610026759821293	2.1359379726481806e-24	9.827246662255853e8	4.702093467431139e25	293.7098685960518	885.8228296937996	3.5792132330941553	0.9945873935236131
0.012658860335068297	2.1856390062562035e-24	9.827246662255853e8	4.702093467431139e25	293.7098685960518	885.8228296937996	3.5792132330941553	0.9945873935236131
0.012707883023163107	2.2359440996737826e-24	9.827246662255853e8	4.702093467431139e25	293.7098685960518	885.8228296937996	3.5792132330941553	0.9945873935236131
0.012757095556463914	2.2868587861825083e-24	9.827246662255853e8	4.702093467431139e25	293.7098685960518	885.8228296937996	3.5792132330941553	0.9945873935236131
0.012806498670165103	2.3383886452782785e-24	9.827246662255853e8	4.702093467431139e25	293.7098685960518	885.8228296937996	3.5792132330941553	0.9945873935236131
0.012856093102308012	2.3905393030423825e-24	9.827246662255853e8	4.702093467431139e25	293.7098685960518	885.8228296937996	3.5792132330941553	0.9945873935236131
0.012905879593792266	2.44331643251607e-24	9.827246662255853e8	4.702093467431139e25	293.7098685960518	885.8228296937996	3.5792132330941553	0.9945873935236131
0.012955858888386658	2.4967257540775503e-24	9.827246662255853e8	4.702093467431139e25	293.7098685960518	885.8228296937996	3.5792132330941553	0.9945873935236131
0.013006031732740288	2.5507730358221894e-24	9.827246662255853e8	4.702093467431139e25	293.7098685960518	885.8228296937996	3.5792132330941553	0.9945873935236131
0.01305639887639379	2.60546409394578e-24	9.827246662255853e8	4.702093467431139e25	293.7098685960518	885.8228296937996	3.5792132330941553	0.9945873935236131
0.0131069610717903	2.660804793130473e-24	9.827246662255853e8	4.702093467431139e25	293.7098685960518	885.8228296937996	3.5792132330941553	0.9945873935236131
0.013157719074287031	2.7168010469343967e-24	9.827246662255853e8	4.702093467431139e25	293.7098685960518	885.8228296937996	3.5792132330941553	0.9945873935236131
0.013208673642166336	2.773458818183722e-24	9.827246662255853e8	4.702093467431139e25	293.7098685960518	885.8228296937996	3.5792132330941553	0.9945873935236131
0.013259825536647146	2.830784119368202e-24	9.827246662255853e8	4.702093467431139e25	293.7098685960518	885.8228296937996	3.5792132330941553	0.9945873935236131
0.013311175521896123	2.888783013039464e-24	9.827246662255853e8	4.702093467431139e25	293.7098685960518	885.8228296937996	3.5792132330941553	0.9945873935236131
0.013362724365039406	2.947461612213028e-24	9.827246662255853e8	4.702093467431139e25	293.7098685960518	885.8228296937996	3.5792132330941553	0.9945873935236131
0.013414472836173849	3.0068260807729255e-24	9.827246662255853e8	4.702093467431139e25	293.7098685960518	885.8228296937996	3.5792132330941553	0.9945873935236131
0.013466421708378638	3.0668826338798477e-24	9.827246662255853e8	4.702093467431139e25	293.7098685960518	885.8228296937996	3.5792132330941553	0.9945873935236131
0.013518571757726618	3.127637538382147e-24	9.827246662255853e8	4.702093467431139e25	293.7098685960518	885.8228296937996	3.5792132330941553	0.9945873935236131
0.01357092376329622	3.1890971132307086e-24	9.827246662255853e8	4.702093467431139e25	293.7098685960518	885.8228296937996	3.5792132330941553	0.9945873935236131
0.013623478507182879	3.25126772989647e-24	9.827246662255853e8	4.702093467431139e25	293.7098685960518	885.8228296937996	3.5792132330941553	0.9945873935236131
0.013676236774510768	3.314155812791531e-24	9.827246662255853e8	4.702093467431139e25	293.7098685960518	885.8228296937996	3.5792132330941553	0.9945873935236131
0.01372919935344459	3.377767839693606e-24	9.827246662255853e8	4.702093467431139e25	293.7098685960518	885.8228296937996	3.5792132330941553	0.9945873935236131
0.013782367035201127	3.442110342173477e-24	9.827246662255853e8	4.702093467431139e25	293.7098685960518	885.8228296937996	3.5792132330941553	0.9945873935236131
0.013835740614061391	3.5071899060264914e-24	9.827246662255853e8	4.702093467431139e25	293.7098685960518	885.8228296937996	3.5792132330941553	0.9945873935236131
0.01388932088738227	3.573013171706778e-24	9.827246662255853e8	4.702093467431139e25	293.7098685960518	885.8228296937996	3.5792132330941553	0.9945873935236131
0.013943108655608554	3.6395868347653225e-24	9.827246662255853e8	4.702093467431139e25	293.7098685960518	885.8228296937996	3.5792132330941553	0.9945873935236131
0.013997104722284668	3.706917646291039e-24	9.827246662255853e8	4.702093467431139e25	293.7098685960518	885.8228296937996	3.5792132330941553	0.9945873935236131
0.014051309894066999	3.7750124133560395e-24	9.827246662255853e8	4.702093467431139e25	293.7098685960518	885.8228296937996	3.5792132330941553	0.9945873935236131
0.01410572498073575	3.8438779994637216e-24	9.827246662255853e8	4.702093467431139e25	293.7098685960518	885.8228296937996	3.5792132330941553	0.9945873935236131
0.014160350795207065	3.913521325000705e-24	9.827246662255853e8	4.702093467431139e25	293.7098685960518	885.8228296937996	3.5792132330941553	0.9945873935236131
0.014215188153545256	3.983949367692379e-24	9.827246662255853e8	4.702093467431139e25	293.7098685960518	885.8228296937996	3.5792132330941553	0.9945873935236131
0.014270237874974742	4.0551691630616204e-24	9.827246662255853e8	4.702093467431139e25	293.7098685960518	885.8228296937996	3.5792132330941553	0.9945873935236131
0.014325500781892644	4.127187804891902e-24	9.827246662255853e8	4.702093467431139e25	293.7098685960518	885.8228296937996	3.5792132330941553	0.9945873935236131
0.014380977699880842	4.2000124456932915e-24	9.827246662255853e8	4.702093467431139e25	293.7098685960518	885.8228296937996	3.5792132330941553	0.9945873935236131
0.014436669457718425	4.273650297172584e-24	9.827246662255853e8	4.702093467431139e25	293.7098685960518	885.8228296937996	3.5792132330941553	0.9945873935236131
0.014492576887393827	4.3481086307066505e-24	9.827246662255853e8	4.702093467431139e25	293.7098685960518	885.8228296937996	3.5792132330941553	0.9945873935236131
0.01454870082411762	4.423394777820322e-24	9.827246662255853e8	4.702093467431139e25	293.7098685960518	885.8228296937996	3.5792132330941553	0.9945873935236131
0.014605042106334759	4.499516130667238e-24	9.827246662255853e8	4.702093467431139e25	293.7098685960518	885.8228296937996	3.5792132330941553	0.9945873935236131
0.014661601575737145	4.576480142514878e-24	9.827246662255853e8	4.702093467431139e25	293.7098685960518	885.8228296937996	3.5792132330941553	0.9945873935236131
0.01471838007727629	4.654294328233433e-24	9.827246662255853e8	4.702093467431139e25	293.7098685960518	885.8228296937996	3.5792132330941553	0.9945873935236131
0.01477537845917567	4.732966264788075e-24	9.827246662255853e8	4.702093467431139e25	293.7098685960518	885.8228296937996	3.5792132330941553	0.9945873935236131
0.014832597572943784	4.81250359173598e-24	9.827246662255853e8	4.702093467431139e25	293.7098685960518	885.8228296937996	3.5792132330941553	0.9945873935236131
0.01489003827338661	4.892914011726395e-24	9.827246662255853e8	4.702093467431139e25	293.7098685960518	885.8228296937996	3.5792132330941553	0.9945873935236131
0.014947701418620514	4.9742052910051605e-24	9.827246662255853e8	4.702093467431139e25	293.7098685960518	885.8228296937996	3.5792132330941553	0.9945873935236131
0.01500558787008482	5.0563852599227066e-24	9.827246662255853e8	4.702093467431139e25	293.7098685960518	885.8228296937996	3.5792132330941553	0.9945873935236131
0.01506369849255504	5.139461813446875e-24	9.827246662255853e8	4.702093467431139e25	293.7098685960518	885.8228296937996	3.5792132330941553	0.9945873935236131
0.015122034154155558	5.2234429116789474e-24	9.827246662255853e8	4.702093467431139e25	293.7098685960518	885.8228296937996	3.5792132330941553	0.9945873935236131
0.015180595726372714	5.3083365803742345e-24	9.827246662255853e8	4.702093467431139e25	293.7098685960518	885.8228296937996	3.5792132330941553	0.9945873935236131
0.015239384084067581	5.394150911466253e-24	9.827246662255853e8	4.702093467431139e25	293.7098685960518	885.8228296937996	3.5792132330941553	0.9945873935236131
0.0152984001054894	5.4808940635958964e-24	9.827246662255853e8	4.702093467431139e25	293.7098685960518	885.8228296937996	3.5792132330941553	0.9945873935236131
0.015357644672288466	5.568574262643905e-24	9.827246662255853e8	4.702093467431139e25	293.7098685960518	885.8228296937996	3.5792132330941553	0.9945873935236131
0.015417118669529342	5.657199802267939e-24	9.827246662255853e8	4.702093467431139e25	293.7098685960518	885.8228296937996	3.5792132330941553	0.9945873935236131
0.01547682298570416	5.746779044443919e-24	9.827246662255853e8	4.702093467431139e25	293.7098685960518	885.8228296937996	3.5792132330941553	0.9945873935236131
0.015536758512745634	5.837320420011131e-24	9.827246662255853e8	4.702093467431139e25	293.7098685960518	885.8228296937996	3.5792132330941553	0.9945873935236131
0.015596926146040769	5.9288324292225796e-24	9.827246662255853e8	4.702093467431139e25	293.7098685960518	885.8228296937996	3.5792132330941553	0.9945873935236131
0.01565732678444397	6.021323642298699e-24	9.827246662255853e8	4.702093467431139e25	293.7098685960518	885.8228296937996	3.5792132330941553	0.9945873935236131
0.015717961330290624	6.114802699986038e-24	9.827246662255853e8	4.702093467431139e25	293.7098685960518	885.8228296937996	3.5792132330941553	0.9945873935236131
0.0157788306894103	6.209278314119723e-24	9.827246662255853e8	4.702093467431139e25	293.7098685960518	885.8228296937996	3.5792132330941553	0.9945873935236131
0.01583993577114068	6.3047592681913215e-24	9.827246662255853e8	4.702093467431139e25	293.7098685960518	885.8228296937996	3.5792132330941553	0.9945873935236131
0.015901277488340863	6.401254417920202e-24	9.827246662255853e8	4.702093467431139e25	293.7098685960518	885.8228296937996	3.5792132330941553	0.9945873935236131
0.01596285675740518	6.498772691830027e-24	9.827246662255853e8	4.702093467431139e25	293.7098685960518	885.8228296937996	3.5792132330941553	0.9945873935236131
0.01602467449827657	6.597323091829041e-24	9.827246662255853e8	4.702093467431139e25	293.7098685960518	885.8228296937996	3.5792132330941553	0.9945873935236131
0.016086731634460748	6.69691469379614e-24	9.827246662255853e8	4.702093467431139e25	293.7098685960518	885.8228296937996	3.5792132330941553	0.9945873935236131
0.01614902909303973	6.797556648170326e-24	9.827246662255853e8	4.702093467431139e25	293.7098685960518	885.8228296937996	3.5792132330941553	0.9945873935236131
0.01621156780468575	6.899259266613605e-24	9.827246662255853e8	4.702093467431139e25	293.7098685960518	885.8228296937996	3.5792132330941553	0.9945873935236131
