r[m]	M[Msun]	rho[g/cm^3]	P[N/m^2]	n_e[pm^-3]	n_p[pm^-3]	muF_e[MeV]	B
0.01000000000000001	3.1432844433687863e-40	4.528203508280788e7	7.07096059630393e23	13.4528860550546	13.618288236322481	1.0282675001578396	0.998310271871618
0.010040178333410204	1.1675485196622933e-27	4.528203508280788e7	7.07096059630393e23	13.4528860550546	13.618288236322481	1.0282675001578396	0.998310271871618
0.010080518096668004	2.3729080099660906e-27	4.528203508280788e7	7.07096059630393e23	13.4528860550546	13.618288236322481	1.0282675001578396	0.998310271871618
0.010121019938371546	3.611526962093906e-27	4.528203508280788e7	7.07096059630393e23	13.4528860550546	13.618288236322481	1.0282675001578396	0.998310271871618
0.010161684509725056	4.8787375607784084e-27	4.528203508280788e7	7.07096059630393e23	13.4528860550546	13.618288236322481	1.0282675001578396	0.998310271871618
0.010202512464549193	6.1697536998539136e-27	4.528203508280788e7	7.07096059630393e23	13.4528860550546	13.618288236322481	1.0282675001578396	0.998310271871618
0.010243504459291425	7.479668968809453e-27	4.528203508280788e7	7.07096059630393e23	13.4528860550546	13.618288236322481	1.0282675001578396	0.998310271871618
0.010284661153036848	8.803454609963444e-27	4.528203508280788e7	7.07096059630393e23	13.4528860550546	13.618288236322481	1.0282675001578396	0.998310271871618
0.010325983207518605	1.013595744583639e-26	4.528203508280788e7	7.07096059630393e23	13.4528860550546	13.618288236322481	1.0282675001578396	0.998310271871618
0.010367471287128624	1.1471897776342115e-26	4.528203508280788e7	7.07096059630393e23	13.4528860550546	13.618288236322481	1.0282675001578396	0.998310271871618
0.01040912605892811	1.2805867245370719e-26	4.528203508280788e7	7.07096059630393e23	13.4528860550546	13.618288236322481	1.0282675001578396	0.998310271871618
0.010450948192658547	1.413232667637506e-26	4.528203508280788e7	7.07096059630393e23	13.4528860550546	13.618288236322481	1.0282675001578396	0.998310271871618
0.01049293836075232	1.545793774437541e-26	4.528203508280788e7	7.07096059630393e23	13.4528860550546	13.618288236322481	1.0282675001578396	0.998310271871618
0.010535097238343411	1.682407979338776e-26	4.528203508280788e7	7.07096059630393e23	13.4528860550546	13.618288236322481	1.0282675001578396	0.998310271871618
0.010577425503278509	1.822988632735105e-26	4.528203508280788e7	7.07096059630393e23	13.4528860550546	13.618288236322481	1.0282675001578396	0.998310271871618
0.010619923836127775	1.9669788039906957e-26	4.528203508280788e7	7.07096059630393e23	13.4528860550546	13.618288236322481	1.0282675001578396	0.998310271871618
0.010662592920195656	2.1138074463458205e-26	4.528203508280788e7	7.07096059630393e23	13.4528860550546	13.618288236322481	1.0282675001578396	0.998310271871618
0.010705433441532136	2.2628891566270577e-26	4.528203508280788e7	7.07096059630393e23	13.4528860550546	13.618288236322481	1.0282675001578396	0.998310271871618
0.010748446088943632	2.4136239314484925e-26	4.528203508280788e7	7.07096059630393e23	13.4528860550546	13.618288236322481	1.0282675001578396	0.998310271871618
0.01079163155400394	2.565396919857658e-26	4.528203508280788e7	7.07096059630393e23	13.4528860550546	13.618288236322481	1.0282675001578396	0.998310271871618
0.010834990531065614	2.7175781723798095e-26	4.528203508280788e7	7.07096059630393e23	13.4528860550546	13.618288236322481	1.0282675001578396	0.998310271871618
0.01087852371727096	2.869522386408624e-26	4.528203508280788e7	7.07096059630393e23	13.4528860550546	13.618288236322481	1.0282675001578396	0.998310271871618
0.010922231812563327	3.02056864789677e-26	4.528203508280788e7	7.07096059630393e23	13.4528860550546	13.618288236322481	1.0282675001578396	0.998310271871618
0.010966115519698187	3.1720819046349855e-26	4.528203508280788e7	7.07096059630393e23	13.4528860550546	13.618288236322481	1.0282675001578396	0.998310271871618
0.0110101755442547	3.3287450150163243e-26	4.528203508280788e7	7.07096059630393e23	13.4528860550546	13.618288236322481	1.0282675001578396	0.998310271871618
0.01105441259464693	3.490506395509539e-26	4.528203508280788e7	7.07096059630393e23	13.4528860550546	13.618288236322481	1.0282675001578396	0.998310271871618
0.011098827382135086	3.6570574254298693e-26	4.528203508280788e7	7.07096059630393e23	13.4528860550546	13.618288236322481	1.0282675001578396	0.998310271871618
0.011143420620837249	3.8280811759400995e-26	4.528203508280788e7	7.07096059630393e23	13.4528860550546	13.618288236322481	1.0282675001578396	0.998310271871618
0.0111881930277407	4.00325226628772e-26	4.528203508280788e7	7.07096059630393e23	13.4528860550546	13.618288236322481	1.0282675001578396	0.998310271871618
0.011233145322713316	4.182236717928665e-26	4.528203508280788e7	7.07096059630393e23	13.4528860550546	13.618288236322481	1.0282675001578396	0.998310271871618
0.01127827822851543	4.3646918065104363e-26	4.528203508280788e7	7.07096059630393e23	13.4528860550546	13.618288236322481	1.0282675001578396	0.998310271871618
0.0113235924708113	4.550265911682466e-26	4.528203508280788e7	7.07096059630393e23	13.4528860550546	13.618288236322481	1.0282675001578396	0.998310271871618
0.011369088778180643	4.7385983647056557e-26	4.528203508280788e7	7.07096059630393e23	13.4528860550546	13.618288236322481	1.0282675001578396	0.998310271871618
0.011414767882130627	4.929319293833234e-26	4.528203508280788e7	7.07096059630393e23	13.4528860550546	13.618288236322481	1.0282675001578396	0.998310271871618
0.01146063051710745	5.1220494674290036e-26	4.528203508280788e7	7.07096059630393e23	13.4528860550546	13.618288236322481	1.0282675001578396	0.998310271871618
0.011506677420508234	5.316400134795411e-26	4.528203508280788e7	7.07096059630393e23	13.4528860550546	13.618288236322481	1.0282675001578396	0.998310271871618
0.011552909332692707	5.511972864678154e-26	4.528203508280788e7	7.07096059630393e23	13.4528860550546	13.618288236322481	1.0282675001578396	0.998310271871618
0.011599326996995375	5.708359381419096e-26	4.528203508280788e7	7.07096059630393e23	13.4528860550546	13.618288236322481	1.0282675001578396	0.998310271871618
0.011645931159737338	5.905141398721839e-26	4.528203508280788e7	7.07096059630393e23	13.4528860550546	13.618288236322481	1.0282675001578396	0.998310271871618
0.01169272257023815	6.101890450999667e-26	4.528203508280788e7	7.07096059630393e23	13.4528860550546	13.618288236322481	1.0282675001578396	0.998310271871618
0.011739701980828143	6.298167722274812e-26	4.528203508280788e7	7.07096059630393e23	13.4528860550546	13.618288236322481	1.0282675001578396	0.998310271871618
0.011786870146860393	6.49352387259266e-26	4.528203508280788e7	7.07096059630393e23	13.4528860550546	13.618288236322481	1.0282675001578396	0.998310271871618
0.011834227826722716	6.687498861918927e-26	4.528203508280788e7	7.07096059630393e23	13.4528860550546	13.618288236322481	1.0282675001578396	0.998310271871618
0.011881775781850143	6.880054408976991e-26	4.528203508280788e7	7.07096059630393e23	13.4528860550546	13.618288236322481	1.0282675001578396	0.998310271871618
0.011929514776737026	7.077386545802085e-26	4.528203508280788e7	7.07096059630393e23	13.4528860550546	13.618288236322481	1.0282675001578396	0.998310271871618
0.011977445578949183	7.28133616926073e-26	4.528203508280788e7	7.07096059630393e23	13.4528860550546	13.618288236322481	1.0282675001578396	0.998310271871618
0.012025568959136531	7.491474346043591e-26	4.528203508280788e7	7.07096059630393e23	13.4528860550546	13.618288236322481	1.0282675001578396	0.998310271871618
0.012073885691045328	7.707360671402666e-26	4.528203508280788e7	7.07096059630393e23	13.4528860550546	13.618288236322481	1.0282675001578396	0.998310271871618
0.01212239655153047	7.928543070987211e-26	4.528203508280788e7	7.07096059630393e23	13.4528860550546	13.618288236322481	1.0282675001578396	0.998310271871618
0.012171102320568266	8.15455759977046e-26	4.528203508280788e7	7.07096059630393e23	13.4528860550546	13.618288236322481	1.0282675001578396	0.998310271871618
0.012220003781268805	8.38492823802359e-26	4.528203508280788e7	7.07096059630393e23	13.4528860550546	13.618288236322481	1.0282675001578396	0.998310271871618
0.01226910171988862	8.619166684300227e-26	4.528203508280788e7	7.07096059630393e23	13.4528860550546	13.618288236322481	1.0282675001578396	0.998310271871618
0.012318396925843147	8.85677214538842e-26	4.528203508280788e7	7.07096059630393e23	13.4528860550546	13.618288236322481	1.0282675001578396	0.998310271871618
0.012367890191719712	9.097231123192656e-26	4.528203508280788e7	7.07096059630393e23	13.4528860550546	13.618288236322481	1.0282675001578396	0.998310271871618
0.012417582313290121	9.340017198499883e-26	4.528203508280788e7	7.07096059630393e23	13.4528860550546	13.618288236322481	1.0282675001578396	0.998310271871618
0.012467474089523312	9.584590811589574e-26	4.528203508280788e7	7.07096059630393e23	13.4528860550546	13.618288236322481	1.0282675001578396	0.998310271871618
0.012517566322598494	9.830399039647191e-26	4.528203508280788e7	7.07096059630393e23	13.4528860550546	13.618288236322481	1.0282675001578396	0.998310271871618
0.012567859817917904	1.0076875370933654e-25	4.528203508280788e7	7.07096059630393e23	13.4528860550546	13.618288236322481	1.0282675001578396	0.998310271871618
0.012618355384119593	1.0323439475668962e-25	4.528203508280788e7	7.07096059630393e23	13.4528860550546	13.618288236322481	1.0282675001578396	0.998310271871618
0.012669053833090742	1.0569496973588112e-25	4.528203508280788e7	7.07096059630393e23	13.4528860550546	13.618288236322481	1.0282675001578396	0.998310271871618
0.012719955979980555	1.0814439198119678e-25	4.528203508280788e7	7.07096059630393e23	13.4528860550546	13.618288236322481	1.0282675001578396	0.998310271871618
0.01277106264321322	1.105764295714393e-25	4.528203508280788e7	7.07096059630393e23	13.4528860550546	13.618288236322481	1.0282675001578396	0.998310271871618
0.01282237464450137	1.1299031534129624e-25	4.528203508280788e7	7.07096059630393e23	13.4528860550546	13.618288236322481	1.0282675001578396	0.998310271871618
0.01287389280885909	1.154297731528897e-25	4.528203508280788e7	7.07096059630393e23	13.4528860550546	13.618288236322481	1.0282675001578396	0.998310271871618
0.012925617964615287	1.17905721601605e-25	4.528203508280788e7	7.07096059630393e23	13.4528860550546	13.618288236322481	1.0282675001578396	0.998310271871618
0.0129775509434268	1.2041852219791698e-25	4.528203508280788e7	7.07096059630393e23	13.4528860550546	13.618288236322481	1.0282675001578396	0.998310271871618
0.013029692580292077	1.2296853963510794e-25	4.528203508280788e7	7.07096059630393e23	13.4528860550546	13.618288236322481	1.0282675001578396	0.998310271871618
0.01308204371356446	1.255561418159804e-25	4.528203508280788e7	7.07096059630393e23	13.4528860550546	13.618288236322481	1.0282675001578396	0.998310271871618
0.013134605184965495	1.2818169987978924e-25	4.528203508280788e7	7.07096059630393e23	13.4528860550546	13.618288236322481	1.0282675001578396	0.998310271871618
0.013187377839598776	1.3084558822941754e-25	4.528203508280788e7	7.07096059630393e23	13.4528860550546	13.618288236322481	1.0282675001578396	0.998310271871618
0.013240362525963391	1.3354818455875353e-25	4.528203508280788e7	7.07096059630393e23	13.4528860550546	13.618288236322481	1.0282675001578396	0.998310271871618
0.013293560095967391	1.3628986988029077e-25	4.528203508280788e7	7.07096059630393e23	13.4528860550546	13.618288236322481	1.0282675001578396	0.998310271871618
0.013346971404941815	1.3907102855298097e-25	4.528203508280788e7	7.07096059630393e23	13.4528860550546	13.618288236322481	1.0282675001578396	0.998310271871618
0.013400597311654279	1.4189204831028974e-25	4.528203508280788e7	7.07096059630393e23	13.4528860550546	13.618288236322481	1.0282675001578396	0.998310271871618
0.013454438678322618	1.4475332028848288e-25	4.528203508280788e7	7.07096059630393e23	13.4528860550546	13.618288236322481	1.0282675001578396	0.998310271871618
0.013508496370629083	1.4765523905517113e-25	4.528203508280788e7	7.07096059630393e23	13.4528860550546	13.618288236322481	1.0282675001578396	0.998310271871618
0.013562771257734037	1.505982026380594e-25	4.528203508280788e7	7.07096059630393e23	13.4528860550546	13.618288236322481	1.0282675001578396	0.998310271871618
0.013617264212290037	1.5358261255395106e-25	4.528203508280788e7	7.07096059630393e23	13.4528860550546	13.618288236322481	1.0282675001578396	0.998310271871618
0.013671976110455647	1.5660887383797067e-25	4.528203508280788e7	7.07096059630393e23	13.4528860550546	13.618288236322481	1.0282675001578396	0.998310271871618
0.013726907831909857	1.5967739507305778e-25	4.528203508280788e7	7.07096059630393e23	13.4528860550546	13.618288236322481	1.0282675001578396	0.998310271871618
0.013782060259866061	1.627885884196768e-25	4.528203508280788e7	7.07096059630393e23	13.4528860550546	13.618288236322481	1.0282675001578396	0.998310271871618
0.01383743428108609	1.6594286964576653e-25	4.528203508280788e7	7.07096059630393e23	13.4528860550546	13.618288236322481	1.0282675001578396	0.998310271871618
0.013893030785894803	1.691406581569686e-25	4.528203508280788e7	7.07096059630393e23	13.4528860550546	13.618288236322481	1.0282675001578396	0.998310271871618
0.01394885066819424	1.7238237702707252e-25	4.528203508280788e7	7.07096059630393e23	13.4528860550546	13.618288236322481	1.0282675001578396	0.998310271871618
0.014004894825477811	1.7566845302871002e-25	4.528203508280788e7	7.07096059630393e23	13.4528860550546	13.618288236322481	1.0282675001578396	0.998310271871618
0.014061164158845086	1.78999316664333e-25	4.528203508280788e7	7.07096059630393e23	13.4528860550546	13.618288236322481	1.0282675001578396	0.998310271871618
0.0141176595730161	1.823754021974147e-25	4.528203508280788e7	7.07096059630393e23	13.4528860550546	13.618288236322481	1.0282675001578396	0.998310271871618
0.014174381976345725	1.8579714768390532e-25	4.528203508280788e7	7.07096059630393e23	13.4528860550546	13.618288236322481	1.0282675001578396	0.998310271871618
0.014231332280838631	1.8926499500397883e-25	4.528203508280788e7	7.07096059630393e23	13.4528860550546	13.618288236322481	1.0282675001578396	0.998310271871618
0.014288511402163712	1.9277938989400469e-25	4.528203508280788e7	7.07096059630393e23	13.4528860550546	13.618288236322481	1.0282675001578396	0.998310271871618
0.014345920259668922	1.9634078197880155e-25	4.528203508280788e7	7.07096059630393e23	13.4528860550546	13.618288236322481	1.0282675001578396	0.998310271871618
0.014403559776395824	1.9994962480413614e-25	4.528203508280788e7	7.07096059630393e23	13.4528860550546	13.618288236322481	1.0282675001578396	0.998310271871618
0.014461430879094794	2.036063758695233e-25	4.528203508280788e7	7.07096059630393e23	13.4528860550546	13.618288236322481	1.0282675001578396	0.998310271871618
0.01451953449823973	2.073114966612634e-25	4.528203508280788e7	7.07096059630393e23	13.4528860550546	13.618288236322481	1.0282675001578396	0.998310271871618
0.014577871568042838	2.110654526857482e-25	4.528203508280788e7	7.07096059630393e23	13.4528860550546	13.618288236322481	1.0282675001578396	0.998310271871618
0.01463644302647002	2.1486871350307685e-25	4.528203508280788e7	7.07096059630393e23	13.4528860550546	13.618288236322481	1.0282675001578396	0.998310271871618
0.014695249815255763	2.1872175276091056e-25	4.528203508280788e7	7.07096059630393e23	13.4528860550546	13.618288236322481	1.0282675001578396	0.998310271871618
0.014754292879918108	2.226250482286067e-25	4.528203508280788e7	7.07096059630393e23	13.4528860550546	13.618288236322481	1.0282675001578396	0.998310271871618
0.014813573169774209	2.2657908183166518e-25	4.528203508280788e7	7.07096059630393e23	13.4528860550546	13.618288236322481	1.0282675001578396	0.998310271871618
0.01487309163795542	2.3058433968642548e-25	4.528203508280788e7	7.07096059630393e23	13.4528860550546	13.618288236322481	1.0282675001578396	0.998310271871618
0.014932849241422434	2.346413121350446e-25	4.528203508280788e7	7.07096059630393e23	13.4528860550546	13.618288236322481	1.0282675001578396	0.998310271871618
0.014992846940981039	2.3875049378079936e-25	4.528203508280788e7	7.07096059630393e23	13.4528860550546	13.618288236322481	1.0282675001578396	0.998310271871618
0.015053085701297313	2.429123835236377e-25	4.528203508280788e7	7.07096059630393e23	13.4528860550546	13.618288236322481	1.0282675001578396	0.998310271871618
0.015113566490913269	2.4712748459604505e-25	4.528203508280788e7	7.07096059630393e23	13.4528860550546	13.618288236322481	1.0282675001578396	0.998310271871618
0.015174290282262175	2.5139630459918035e-25	4.528203508280788e7	7.07096059630393e23	13.4528860550546	13.618288236322481	1.0282675001578396	0.998310271871618
0.015235258051684556	2.5571935553934863e-25	4.528203508280788e7	7.07096059630393e23	13.4528860550546	13.618288236322481	1.0282675001578396	0.998310271871618
0.015296470779443712	2.600971538647372e-25	4.528203508280788e7	7.07096059630393e23	13.4528860550546	13.618288236322481	1.0282675001578396	0.998310271871618
0.01535792944974129	2.64530220502449e-25	4.528203508280788e7	7.07096059630393e23	13.4528860550546	13.618288236322481	1.0282675001578396	0.998310271871618
0.015419635050733486	2.690190808958816e-25	4.528203508280788e7	7.07096059630393e23	13.4528860550546	13.618288236322481	1.0282675001578396	0.998310271871618
0.015481588574546738	2.73564265042371e-25	4.528203508280788e7	7.07096059630393e23	13.4528860550546	13.618288236322481	1.0282675001578396	0.998310271871618
0.015543791017293496	2.7816630753114324e-25	4.528203508280788e7	7.07096059630393e23	13.4528860550546	13.618288236322481	1.0282675001578396	0.998310271871618
0.015606243379088617	2.8282574758162048e-25	4.528203508280788e7	7.07096059630393e23	13.4528860550546	13.618288236322481	1.0282675001578396	0.998310271871618
0.015668946664065247	2.8754312908199507e-25	4.528203508280788e7	7.07096059630393e23	13.4528860550546	13.618288236322481	1.0282675001578396	0.998310271871618
0.015731901880390784	2.923190006281235e-25	4.528203508280788e7	7.07096059630393e23	13.4528860550546	13.618288236322481	1.0282675001578396	0.998310271871618
0.015795110040283465	2.971539155627783e-25	4.528203508280788e7	7.07096059630393e23	13.4528860550546	13.618288236322481	1.0282675001578396	0.998310271871618
0.015858572160028384	3.020484320151755e-25	4.528203508280788e7	7.07096059630393e23	13.4528860550546	13.618288236322481	1.0282675001578396	0.998310271871618
0.015922289259993977	3.0700311294085476e-25	4.528203508280788e7	7.07096059630393e23	13.4528860550546	13.618288236322481	1.0282675001578396	0.998310271871618
0.015986262364648136	3.12018526161853e-25	4.528203508280788e7	7.07096059630393e23	13.4528860550546	13.618288236322481	1.0282675001578396	0.998310271871618
0.016050492502575103	3.1709524440726234e-25	4.528203508280788e7	7.07096059630393e23	13.4528860550546	13.618288236322481	1.0282675001578396	0.998310271871618
0.016114980706491797	3.2223384535406997e-25	4.528203508280788e7	7.07096059630393e23	13.4528860550546	13.618288236322481	1.0282675001578396	0.998310271871618
0.016179728013264227	3.27434911668334e-25	4.528203508280788e7	7.07096059630393e23	13.4528860550546	13.618288236322481	1.0282675001578396	0.998310271871618
0.016244735463924544	3.3269903104674305e-25	4.528203508280788e7	7.07096059630393e23	13.4528860550546	13.618288236322481	1.0282675001578396	0.998310271871618
0.01631000410368761	3.3802679625846868e-25	4.528203508280788e7	7.07096059630393e23	13.4528860550546	13.618288236322481	1.0282675001578396	0.998310271871618
0.01637553498196757	3.434188051873594e-25	4.528203508280788e7	7.07096059630393e23	13.4528860550546	13.618288236322481	1.0282675001578396	0.998310271871618
0.016441329152395146	3.4887566087452882e-25	4.528203508280788e7	7.07096059630393e23	13.4528860550546	13.618288236322481	1.0282675001578396	0.998310271871618
0.016507387672834384	3.5439797156124575e-25	4.528203508280788e7	7.07096059630393e23	13.4528860550546	13.618288236322481	1.0282675001578396	0.998310271871618
0.01657371160539943	3.5998635073216822e-25	4.528203508280788e7	7.07096059630393e23	13.4528860550546	13.618288236322481	1.0282675001578396	0.998310271871618
