r[m]	M[Msun]	rho[g/cm^3]	P[N/m^2]	n_e[pm^-3]	n_p[pm^-3]	muF_e[MeV]	B
0.00999999999999999	-7.449752220861208e-39	1.289195819173911e9	6.763256691385681e25	385.0579238001769	1161.9013429364811	3.959824874018684	0.9940518003305283
0.010038584440329748	3.1878378757010317e-26	1.289195819173911e9	6.763256691385681e25	385.0579238001769	1161.9013429364811	3.959824874018684	0.9940518003305283
0.010077317756563061	6.462731022383621e-26	1.289195819173911e9	6.763256691385681e25	385.0579238001769	1161.9013429364811	3.959824874018684	0.9940518003305283
0.010116200523129313	9.801366469989951e-26	1.289195819173911e9	6.763256691385681e25	385.0579238001769	1161.9013429364811	3.959824874018684	0.9940518003305283
0.01015523331667417	1.3179876931560606e-25	1.289195819173911e9	6.763256691385681e25	385.0579238001769	1161.9013429364811	3.959824874018684	0.9940518003305283
0.010194416716068366	1.657383180284074e-25	1.289195819173911e9	6.763256691385681e25	385.0579238001769	1161.9013429364811	3.959824874018684	0.9940518003305283
0.010233751302416147	1.9958228036061308e-25	1.289195819173911e9	6.763256691385681e25	385.0579238001769	1161.9013429364811	3.959824874018684	0.9940518003305283
0.010273237659063955	2.3367632374809026e-25	1.289195819173911e9	6.763256691385681e25	385.0579238001769	1161.9013429364811	3.959824874018684	0.9940518003305283
0.010312876371608912	2.687177058126896e-25	1.289195819173911e9	6.763256691385681e25	385.0579238001769	1161.9013429364811	3.959824874018684	0.9940518003305283
0.010352668027907762	3.0446262235756856e-25	1.289195819173911e9	6.763256691385681e25	385.0579238001769	1161.9013429364811	3.959824874018684	0.9940518003305283
0.010392613218085421	3.4064931302455804e-25	1.289195819173911e9	6.763256691385681e25	385.0579238001769	1161.9013429364811	3.959824874018684	0.9940518003305283
0.010432712534543812	3.7700983833416956e-25	1.289195819173911e9	6.763256691385681e25	385.0579238001769	1161.9013429364811	3.959824874018684	0.9940518003305283
0.010472966571970473	4.1326997957284544e-25	1.289195819173911e9	6.763256691385681e25	385.0579238001769	1161.9013429364811	3.959824874018684	0.9940518003305283
0.010513375927347647	4.498419856265218e-25	1.289195819173911e9	6.763256691385681e25	385.0579238001769	1161.9013429364811	3.959824874018684	0.9940518003305283
0.010553941199960953	4.875619949333963e-25	1.289195819173911e9	6.763256691385681e25	385.0579238001769	1161.9013429364811	3.959824874018684	0.9940518003305283
0.010594662991408361	5.263043517062316e-25	1.289195819173911e9	6.763256691385681e25	385.0579238001769	1161.9013429364811	3.959824874018684	0.9940518003305283
0.010635541905608949	5.659307171362597e-25	1.289195819173911e9	6.763256691385681e25	385.0579238001769	1161.9013429364811	3.959824874018684	0.9940518003305283
0.01067657854881211	6.062993864213478e-25	1.289195819173911e9	6.763256691385681e25	385.0579238001769	1161.9013429364811	3.959824874018684	0.9940518003305283
0.010717773529606373	6.472652337529514e-25	1.289195819173911e9	6.763256691385681e25	385.0579238001769	1161.9013429364811	3.959824874018684	0.9940518003305283
0.01075912745892851	6.886796565322365e-25	1.289195819173911e9	6.763256691385681e25	385.0579238001769	1161.9013429364811	3.959824874018684	0.9940518003305283
0.010800640950072438	7.303905188048641e-25	1.289195819173911e9	6.763256691385681e25	385.0579238001769	1161.9013429364811	3.959824874018684	0.9940518003305283
0.010842314618698558	7.722420939049738e-25	1.289195819173911e9	6.763256691385681e25	385.0579238001769	1161.9013429364811	3.959824874018684	0.9940518003305283
0.010884149082842721	8.1407500629723965e-25	1.289195819173911e9	6.763256691385681e25	385.0579238001769	1161.9013429364811	3.959824874018684	0.9940518003305283
0.010926144962925434	8.557261726072684e-25	1.289195819173911e9	6.763256691385681e25	385.0579238001769	1161.9013429364811	3.959824874018684	0.9940518003305283
0.010968302881761108	8.971321331748978e-25	1.289195819173911e9	6.763256691385681e25	385.0579238001769	1161.9013429364811	3.959824874018684	0.9940518003305283
0.011010623464567108	9.395104946044962e-25	1.289195819173911e9	6.763256691385681e25	385.0579238001769	1161.9013429364811	3.959824874018684	0.9940518003305283
0.011053107338973309	9.831340322347083e-25	1.289195819173911e9	6.763256691385681e25	385.0579238001769	1161.9013429364811	3.959824874018684	0.9940518003305283
0.011095755135031212	1.0278391130764803e-24	1.289195819173911e9	6.763256691385681e25	385.0579238001769	1161.9013429364811	3.959824874018684	0.9940518003305283
0.011138567485223377	1.0734581160194472e-24	1.289195819173911e9	6.763256691385681e25	385.0579238001769	1161.9013429364811	3.959824874018684	0.9940518003305283
0.011181545024472637	1.1198193666175493e-24	1.289195819173911e9	6.763256691385681e25	385.0579238001769	1161.9013429364811	3.959824874018684	0.9940518003305283
0.011224688390151762	1.1667470709608153e-24	1.289195819173911e9	6.763256691385681e25	385.0579238001769	1161.9013429364811	3.959824874018684	0.9940518003305283
0.011267998222092755	1.214061248620558e-24	1.289195819173911e9	6.763256691385681e25	385.0579238001769	1161.9013429364811	3.959824874018684	0.9940518003305283
0.011311475162596415	1.261577664656667e-24	1.289195819173911e9	6.763256691385681e25	385.0579238001769	1161.9013429364811	3.959824874018684	0.9940518003305283
0.01135511985644169	1.3091077606742774e-24	1.289195819173911e9	6.763256691385681e25	385.0579238001769	1161.9013429364811	3.959824874018684	0.9940518003305283
0.011398932950895502	1.3564585849182495e-24	1.289195819173911e9	6.763256691385681e25	385.0579238001769	1161.9013429364811	3.959824874018684	0.9940518003305283
0.011442915095722175	1.403470488291669e-24	1.289195819173911e9	6.763256691385681e25	385.0579238001769	1161.9013429364811	3.959824874018684	0.9940518003305283
0.011487066943193158	1.450797768232618e-24	1.289195819173911e9	6.763256691385681e25	385.0579238001769	1161.9013429364811	3.959824874018684	0.9940518003305283
0.011531389148096514	1.498748995032853e-24	1.289195819173911e9	6.763256691385681e25	385.0579238001769	1161.9013429364811	3.959824874018684	0.9940518003305283
0.01157588236774691	1.54732998847667e-24	1.289195819173911e9	6.763256691385681e25	385.0579238001769	1161.9013429364811	3.959824874018684	0.9940518003305283
0.011620547261995172	1.5965466171869166e-24	1.289195819173911e9	6.763256691385681e25	385.0579238001769	1161.9013429364811	3.959824874018684	0.9940518003305283
0.011665384493238128	1.6464047990174776e-24	1.289195819173911e9	6.763256691385681e25	385.0579238001769	1161.9013429364811	3.959824874018684	0.9940518003305283
0.011710394726428479	1.6969105014488584e-24	1.289195819173911e9	6.763256691385681e25	385.0579238001769	1161.9013429364811	3.959824874018684	0.9940518003305283
0.011755578629084457	1.7480697419865902e-24	1.289195819173911e9	6.763256691385681e25	385.0579238001769	1161.9013429364811	3.959824874018684	0.9940518003305283
0.011800936871300025	1.7998885885633414e-24	1.289195819173911e9	6.763256691385681e25	385.0579238001769	1161.9013429364811	3.959824874018684	0.9940518003305283
0.011846470125754616	1.8523731599436468e-24	1.289195819173911e9	6.763256691385681e25	385.0579238001769	1161.9013429364811	3.959824874018684	0.9940518003305283
0.01189217906772321	1.9055296261321384e-24	1.289195819173911e9	6.763256691385681e25	385.0579238001769	1161.9013429364811	3.959824874018684	0.9940518003305283
0.011938064375086144	1.9593642087846697e-24	1.289195819173911e9	6.763256691385681e25	385.0579238001769	1161.9013429364811	3.959824874018684	0.9940518003305283
0.011984126728339475	2.013883181623248e-24	1.289195819173911e9	6.763256691385681e25	385.0579238001769	1161.9013429364811	3.959824874018684	0.9940518003305283
0.012030366810604862	2.069092870853633e-24	1.289195819173911e9	6.763256691385681e25	385.0579238001769	1161.9013429364811	3.959824874018684	0.9940518003305283
0.012076785307639799	2.124999655586614e-24	1.289195819173911e9	6.763256691385681e25	385.0579238001769	1161.9013429364811	3.959824874018684	0.9940518003305283
0.01212338290784759	2.181609968262209e-24	1.289195819173911e9	6.763256691385681e25	385.0579238001769	1161.9013429364811	3.959824874018684	0.9940518003305283
0.012170160302287856	2.238930295077823e-24	1.289195819173911e9	6.763256691385681e25	385.0579238001769	1161.9013429364811	3.959824874018684	0.9940518003305283
0.012217118184686576	2.2969671764191663e-24	1.289195819173911e9	6.763256691385681e25	385.0579238001769	1161.9013429364811	3.959824874018684	0.9940518003305283
0.01226425725144649	2.3557272072949387e-24	1.289195819173911e9	6.763256691385681e25	385.0579238001769	1161.9013429364811	3.959824874018684	0.9940518003305283
0.012311578201657214	2.4152170377745496e-24	1.289195819173911e9	6.763256691385681e25	385.0579238001769	1161.9013429364811	3.959824874018684	0.9940518003305283
0.012359081737105912	2.4754433734299123e-24	1.289195819173911e9	6.763256691385681e25	385.0579238001769	1161.9013429364811	3.959824874018684	0.9940518003305283
0.012406768562287507	2.5364129757800904e-24	1.289195819173911e9	6.763256691385681e25	385.0579238001769	1161.9013429364811	3.959824874018684	0.9940518003305283
0.012454639384415225	2.5981326627398257e-24	1.289195819173911e9	6.763256691385681e25	385.0579238001769	1161.9013429364811	3.959824874018684	0.9940518003305283
0.012502694913430888	2.6606093090712025e-24	1.289195819173911e9	6.763256691385681e25	385.0579238001769	1161.9013429364811	3.959824874018684	0.9940518003305283
0.01255093586201573	2.7238498468394977e-24	1.289195819173911e9	6.763256691385681e25	385.0579238001769	1161.9013429364811	3.959824874018684	0.9940518003305283
0.012599362945600788	2.787861265872016e-24	1.289195819173911e9	6.763256691385681e25	385.0579238001769	1161.9013429364811	3.959824874018684	0.9940518003305283
0.012647976882377537	2.8526506142207956e-24	1.289195819173911e9	6.763256691385681e25	385.0579238001769	1161.9013429364811	3.959824874018684	0.9940518003305283
0.012696778393308612	2.91822499862901e-24	1.289195819173911e9	6.763256691385681e25	385.0579238001769	1161.9013429364811	3.959824874018684	0.9940518003305283
0.01274576820213829	2.984591585000672e-24	1.289195819173911e9	6.763256691385681e25	385.0579238001769	1161.9013429364811	3.959824874018684	0.9940518003305283
0.012794947035403521	3.0517575988747138e-24	1.289195819173911e9	6.763256691385681e25	385.0579238001769	1161.9013429364811	3.959824874018684	0.9940518003305283
0.012844315622444515	3.1197303259021192e-24	1.289195819173911e9	6.763256691385681e25	385.0579238001769	1161.9013429364811	3.959824874018684	0.9940518003305283
0.012893874695415647	3.1885171123272255e-24	1.289195819173911e9	6.763256691385681e25	385.0579238001769	1161.9013429364811	3.959824874018684	0.9940518003305283
0.01294362498929611	3.2581253654723542e-24	1.289195819173911e9	6.763256691385681e25	385.0579238001769	1161.9013429364811	3.959824874018684	0.9940518003305283
0.012993567241901134	3.3285625542270246e-24	1.289195819173911e9	6.763256691385681e25	385.0579238001769	1161.9013429364811	3.959824874018684	0.9940518003305283
0.013043702193892717	3.3998362095402405e-24	1.289195819173911e9	6.763256691385681e25	385.0579238001769	1161.9013429364811	3.959824874018684	0.9940518003305283
0.013094030588790708	3.471953924917115e-24	1.289195819173911e9	6.763256691385681e25	385.0579238001769	1161.9013429364811	3.959824874018684	0.9940518003305283
0.01314455317298363	3.544923356918924e-24	1.289195819173911e9	6.763256691385681e25	385.0579238001769	1161.9013429364811	3.959824874018684	0.9940518003305283
0.01319527069574006	3.618752225667876e-24	1.289195819173911e9	6.763256691385681e25	385.0579238001769	1161.9013429364811	3.959824874018684	0.9940518003305283
0.01324618390921954	3.693448315355089e-24	1.289195819173911e9	6.763256691385681e25	385.0579238001769	1161.9013429364811	3.959824874018684	0.9940518003305283
0.013297293568483819	3.769019474752967e-24	1.289195819173911e9	6.763256691385681e25	385.0579238001769	1161.9013429364811	3.959824874018684	0.9940518003305283
0.013348600431507863	3.845473617731221e-24	1.289195819173911e9	6.763256691385681e25	385.0579238001769	1161.9013429364811	3.959824874018684	0.9940518003305283
0.013400105259191393	3.922818723777646e-24	1.289195819173911e9	6.763256691385681e25	385.0579238001769	1161.9013429364811	3.959824874018684	0.9940518003305283
0.013451808815369965	4.001062838522259e-24	1.289195819173911e9	6.763256691385681e25	385.0579238001769	1161.9013429364811	3.959824874018684	0.9940518003305283
0.013503711866826416	4.080214074266033e-24	1.289195819173911e9	6.763256691385681e25	385.0579238001769	1161.9013429364811	3.959824874018684	0.9940518003305283
0.013555815183301996	4.160280610513225e-24	1.289195819173911e9	6.763256691385681e25	385.0579238001769	1161.9013429364811	3.959824874018684	0.9940518003305283
0.013608119537508128	4.241270694508809e-24	1.289195819173911e9	6.763256691385681e25	385.0579238001769	1161.9013429364811	3.959824874018684	0.9940518003305283
0.013660625705137647	4.32319264177925e-24	1.289195819173911e9	6.763256691385681e25	385.0579238001769	1161.9013429364811	3.959824874018684	0.9940518003305283
0.013713334464876352	4.4060548366779205e-24	1.289195819173911e9	6.763256691385681e25	385.0579238001769	1161.9013429364811	3.959824874018684	0.9940518003305283
0.01376624659841461	4.4898657329348634e-24	1.289195819173911e9	6.763256691385681e25	385.0579238001769	1161.9013429364811	3.959824874018684	0.9940518003305283
0.013819362890458736	4.574633854210388e-24	1.289195819173911e9	6.763256691385681e25	385.0579238001769	1161.9013429364811	3.959824874018684	0.9940518003305283
0.013872684128742952	4.660367794653915e-24	1.289195819173911e9	6.763256691385681e25	385.0579238001769	1161.9013429364811	3.959824874018684	0.9940518003305283
0.013926211104040857	4.747076219466321e-24	1.289195819173911e9	6.763256691385681e25	385.0579238001769	1161.9013429364811	3.959824874018684	0.9940518003305283
0.013979944610177262	4.834767865467248e-24	1.289195819173911e9	6.763256691385681e25	385.0579238001769	1161.9013429364811	3.959824874018684	0.9940518003305283
0.014033885444039731	4.923451541666275e-24	1.289195819173911e9	6.763256691385681e25	385.0579238001769	1161.9013429364811	3.959824874018684	0.9940518003305283
0.014088034405590751	5.0131361298395554e-24	1.289195819173911e9	6.763256691385681e25	385.0579238001769	1161.9013429364811	3.959824874018684	0.9940518003305283
0.014142392297879358	5.103830585110031e-24	1.289195819173911e9	6.763256691385681e25	385.0579238001769	1161.9013429364811	3.959824874018684	0.9940518003305283
0.014196959927053172	5.195543936532744e-24	1.289195819173911e9	6.763256691385681e25	385.0579238001769	1161.9013429364811	3.959824874018684	0.9940518003305283
0.014251738102370105	5.288285287684194e-24	1.289195819173911e9	6.763256691385681e25	385.0579238001769	1161.9013429364811	3.959824874018684	0.9940518003305283
0.01430672763621073	5.382063817257285e-24	1.289195819173911e9	6.763256691385681e25	385.0579238001769	1161.9013429364811	3.959824874018684	0.9940518003305283
0.014361929344090077	5.4768887796599485e-24	1.289195819173911e9	6.763256691385681e25	385.0579238001769	1161.9013429364811	3.959824874018684	0.9940518003305283
0.014417344044669857	5.5727695056190855e-24	1.289195819173911e9	6.763256691385681e25	385.0579238001769	1161.9013429364811	3.959824874018684	0.9940518003305283
0.014472972559770373	5.669715402788655e-24	1.289195819173911e9	6.763256691385681e25	385.0579238001769	1161.9013429364811	3.959824874018684	0.9940518003305283
0.014528815714383041	5.767735956363466e-24	1.289195819173911e9	6.763256691385681e25	385.0579238001769	1161.9013429364811	3.959824874018684	0.9940518003305283
0.014584874336682407	5.8668407296968886e-24	1.289195819173911e9	6.763256691385681e25	385.0579238001769	1161.9013429364811	3.959824874018684	0.9940518003305283
0.014641149258038538	5.967039364923935e-24	1.289195819173911e9	6.763256691385681e25	385.0579238001769	1161.9013429364811	3.959824874018684	0.9940518003305283
0.014697641313029124	6.068341583588648e-24	1.289195819173911e9	6.763256691385681e25	385.0579238001769	1161.9013429364811	3.959824874018684	0.9940518003305283
0.0147543513394522	6.1707571872774495e-24	1.289195819173911e9	6.763256691385681e25	385.0579238001769	1161.9013429364811	3.959824874018684	0.9940518003305283
0.014811280178338335	6.274296058256394e-24	1.289195819173911e9	6.763256691385681e25	385.0579238001769	1161.9013429364811	3.959824874018684	0.9940518003305283
0.014868428673963176	6.378968160113996e-24	1.289195819173911e9	6.763256691385681e25	385.0579238001769	1161.9013429364811	3.959824874018684	0.9940518003305283
0.014925797673860017	6.484783538409036e-24	1.289195819173911e9	6.763256691385681e25	385.0579238001769	1161.9013429364811	3.959824874018684	0.9940518003305283
0.014983388028832126	6.591752321322941e-24	1.289195819173911e9	6.763256691385681e25	385.0579238001769	1161.9013429364811	3.959824874018684	0.9940518003305283
0.015041200592965733	6.699884720318387e-24	1.289195819173911e9	6.763256691385681e25	385.0579238001769	1161.9013429364811	3.959824874018684	0.9940518003305283
0.015099236223642454	6.809191030801958e-24	1.289195819173911e9	6.763256691385681e25	385.0579238001769	1161.9013429364811	3.959824874018684	0.9940518003305283
0.015157495781552118	6.919681632792645e-24	1.289195819173911e9	6.763256691385681e25	385.0579238001769	1161.9013429364811	3.959824874018684	0.9940518003305283
0.015215980130705303	7.031366991594938e-24	1.289195819173911e9	6.763256691385681e25	385.0579238001769	1161.9013429364811	3.959824874018684	0.9940518003305283
0.015274690138446501	7.144257658478332e-24	1.289195819173911e9	6.763256691385681e25	385.0579238001769	1161.9013429364811	3.959824874018684	0.9940518003305283
0.015333626675466743	7.258364271361e-24	1.289195819173911e9	6.763256691385681e25	385.0579238001769	1161.9013429364811	3.959824874018684	0.9940518003305283
0.015392790615816639	7.373697555499552e-24	1.289195819173911e9	6.763256691385681e25	385.0579238001769	1161.9013429364811	3.959824874018684	0.9940518003305283
0.015452182836919081	7.490268324183444e-24	1.289195819173911e9	6.763256691385681e25	385.0579238001769	1161.9013429364811	3.959824874018684	0.9940518003305283
0.01551180421958264	7.608087479436086e-24	1.289195819173911e9	6.763256691385681e25	385.0579238001769	1161.9013429364811	3.959824874018684	0.9940518003305283
0.015571655648014377	7.727166012720191e-24	1.289195819173911e9	6.763256691385681e25	385.0579238001769	1161.9013429364811	3.959824874018684	0.9940518003305283
0.015631738009833075	7.847515005649429e-24	1.289195819173911e9	6.763256691385681e25	385.0579238001769	1161.9013429364811	3.959824874018684	0.9940518003305283
0.015692052196082155	7.969145630704875e-24	1.289195819173911e9	6.763256691385681e25	385.0579238001769	1161.9013429364811	3.959824874018684	0.9940518003305283
0.015752599101243273	8.092069151958345e-24	1.289195819173911e9	6.763256691385681e25	385.0579238001769	1161.9013429364811	3.959824874018684	0.9940518003305283
0.015813379623249323	8.216296925800142e-24	1.289195819173911e9	6.763256691385681e25	385.0579238001769	1161.9013429364811	3.959824874018684	0.9940518003305283
0.01587439466349783	8.341840401673156e-24	1.289195819173911e9	6.763256691385681e25	385.0579238001769	1161.9013429364811	3.959824874018684	0.9940518003305283
0.01593564512686437	8.468711122812693e-24	1.289195819173911e9	6.763256691385681e25	385.0579238001769	1161.9013429364811	3.959824874018684	0.9940518003305283
0.01599713192171574	8.596920726991417e-24	1.289195819173911e9	6.763256691385681e25	385.0579238001769	1161.9013429364811	3.959824874018684	0.9940518003305283
0.016058855959923807	8.726480947271558e-24	1.289195819173911e9	6.763256691385681e25	385.0579238001769	1161.9013429364811	3.959824874018684	0.9940518003305283
0.016120818156878793	8.857403612761589e-24	1.289195819173911e9	6.763256691385681e25	385.0579238001769	1161.9013429364811	3.959824874018684	0.9940518003305283
0.016183019431502955	8.989700649379648e-24	1.289195819173911e9	6.763256691385681e25	385.0579238001769	1161.9013429364811	3.959824874018684	0.9940518003305283
