r[m]	M[Msun]	rho[g/cm^3]	P[N/m^2]	n_e[pm^-3]	n_p[pm^-3]	muF_e[MeV]	B
0.010000000000000016	4.88133584146682e-39	4.686551797912042e8	1.7218551063160054e25	139.22311690632702	140.85167114976232	2.6941709792382125	0.995870895787603
0.010039089416824507	1.1742258274507897e-26	4.686551797912042e8	1.7218551063160054e25	139.22311690632702	140.85167114976232	2.6941709792382125	0.995870895787603
0.010078331631899808	2.3808271173440068e-26	4.686551797912042e8	1.7218551063160054e25	139.22311690632702	140.85167114976232	2.6941709792382125	0.995870895787603
0.010117727242505287	3.6109975147922846e-26	4.686551797912042e8	1.7218551063160054e25	139.22311690632702	140.85167114976232	2.6941709792382125	0.995870895787603
0.010157276848255209	4.8557185414707225e-26	4.686551797912042e8	1.7218551063160054e25	139.22311690632702	140.85167114976232	2.6941709792382125	0.995870895787603
0.010196981051107529	6.105756106236454e-26	4.686551797912042e8	1.7218551063160054e25	139.22311690632702	140.85167114976232	2.6941709792382125	0.995870895787603
0.010236840455373349	7.351656966358759e-26	4.686551797912042e8	1.7218551063160054e25	139.22311690632702	140.85167114976232	2.6941709792382125	0.995870895787603
0.01027685566772598	8.610090512423097e-26	4.686551797912042e8	1.7218551063160054e25	139.22311690632702	140.85167114976232	2.6941709792382125	0.995870895787603
0.010317027297210069	9.903442092492543e-26	4.686551797912042e8	1.7218551063160054e25	139.22311690632702	140.85167114976232	2.6941709792382125	0.995870895787603
0.01035735595525114	1.1222109775134327e-25	4.686551797912042e8	1.7218551063160054e25	139.22311690632702	140.85167114976232	2.6941709792382125	0.995870895787603
0.010397842255664584	1.2556184994976368e-25	4.686551797912042e8	1.7218551063160054e25	139.22311690632702	140.85167114976232	2.6941709792382125	0.995870895787603
0.010438486814665283	1.3895522379873895e-25	4.686551797912042e8	1.7218551063160054e25	139.22311690632702	140.85167114976232	2.6941709792382125	0.995870895787603
0.010479290250876867	1.5229783667086797e-25	4.686551797912042e8	1.7218551063160054e25	139.22311690632702	140.85167114976232	2.6941709792382125	0.995870895787603
0.010520253185341003	1.6583244309190147e-25	4.686551797912042e8	1.7218551063160054e25	139.22311690632702	140.85167114976232	2.6941709792382125	0.995870895787603
0.010561376241527145	1.7979107914016926e-25	4.686551797912042e8	1.7218551063160054e25	139.22311690632702	140.85167114976232	2.6941709792382125	0.995870895787603
0.010602660045341676	1.941225507540333e-25	4.686551797912042e8	1.7218551063160054e25	139.22311690632702	140.85167114976232	2.6941709792382125	0.995870895787603
0.010644105225137751	2.0877439333123506e-25	4.686551797912042e8	1.7218551063160054e25	139.22311690632702	140.85167114976232	2.6941709792382125	0.995870895787603
0.010685712411724712	2.2369285064957626e-25	4.686551797912042e8	1.7218551063160054e25	139.22311690632702	140.85167114976232	2.6941709792382125	0.995870895787603
0.010727482238377564	2.3882285348800706e-25	4.686551797912042e8	1.7218551063160054e25	139.22311690632702	140.85167114976232	2.6941709792382125	0.995870895787603
0.010769415340846937	2.5410799794433845e-25	4.686551797912042e8	1.7218551063160054e25	139.22311690632702	140.85167114976232	2.6941709792382125	0.995870895787603
0.01081151235736838	2.694905234451831e-25	4.686551797912042e8	1.7218551063160054e25	139.22311690632702	140.85167114976232	2.6941709792382125	0.995870895787603
0.010853773928672455	2.8491129044458776e-25	4.686551797912042e8	1.7218551063160054e25	139.22311690632702	140.85167114976232	2.6941709792382125	0.995870895787603
0.010896200697994124	3.0030975780673862e-25	4.686551797912042e8	1.7218551063160054e25	139.22311690632702	140.85167114976232	2.6941709792382125	0.995870895787603
0.010938793311082844	3.1562395986909453e-25	4.686551797912042e8	1.7218551063160054e25	139.22311690632702	140.85167114976232	2.6941709792382125	0.995870895787603
0.010981552416212277	3.309245096464248e-25	4.686551797912042e8	1.7218551063160054e25	139.22311690632702	140.85167114976232	2.6941709792382125	0.995870895787603
0.01102447866419001	3.4667811176289137e-25	4.686551797912042e8	1.7218551063160054e25	139.22311690632702	140.85167114976232	2.6941709792382125	0.995870895787603
0.011067572708367777	3.6287806868255894e-25	4.686551797912042e8	1.7218551063160054e25	139.22311690632702	140.85167114976232	2.6941709792382125	0.995870895787603
0.011110835204651053	3.794621125049032e-25	4.686551797912042e8	1.7218551063160054e25	139.22311690632702	140.85167114976232	2.6941709792382125	0.995870895787603
0.011154266811509337	3.9636644141950645e-25	4.686551797912042e8	1.7218551063160054e25	139.22311690632702	140.85167114976232	2.6941709792382125	0.995870895787603
0.01119786818998605	4.1352569431158057e-25	4.686551797912042e8	1.7218551063160054e25	139.22311690632702	140.85167114976232	2.6941709792382125	0.995870895787603
0.011241640003708458	4.308729250069096e-25	4.686551797912042e8	1.7218551063160054e25	139.22311690632702	140.85167114976232	2.6941709792382125	0.995870895787603
0.011285582918898088	4.483395761516319e-25	4.686551797912042e8	1.7218551063160054e25	139.22311690632702	140.85167114976232	2.6941709792382125	0.995870895787603
0.011329697604380504	4.658554527216405e-25	4.686551797912042e8	1.7218551063160054e25	139.22311690632702	140.85167114976232	2.6941709792382125	0.995870895787603
0.011373984731595812	4.833486951572546e-25	4.686551797912042e8	1.7218551063160054e25	139.22311690632702	140.85167114976232	2.6941709792382125	0.995870895787603
0.011418444974608734	5.007457521177804e-25	4.686551797912042e8	1.7218551063160054e25	139.22311690632702	140.85167114976232	2.6941709792382125	0.995870895787603
0.011463079010118735	5.180714993045183e-25	4.686551797912042e8	1.7218551063160054e25	139.22311690632702	140.85167114976232	2.6941709792382125	0.995870895787603
0.01150788751747064	5.356063332064716e-25	4.686551797912042e8	1.7218551063160054e25	139.22311690632702	140.85167114976232	2.6941709792382125	0.995870895787603
0.01155287117866462	5.533750122758178e-25	4.686551797912042e8	1.7218551063160054e25	139.22311690632702	140.85167114976232	2.6941709792382125	0.995870895787603
0.011598030678366867	5.713797454413412e-25	4.686551797912042e8	1.7218551063160054e25	139.22311690632702	140.85167114976232	2.6941709792382125	0.995870895787603
0.011643366703919907	5.896227604091146e-25	4.686551797912042e8	1.7218551063160054e25	139.22311690632702	140.85167114976232	2.6941709792382125	0.995870895787603
0.011688879945352901	6.081063038152767e-25	4.686551797912042e8	1.7218551063160054e25	139.22311690632702	140.85167114976232	2.6941709792382125	0.995870895787603
0.011734571095392483	6.268326413802413e-25	4.686551797912042e8	1.7218551063160054e25	139.22311690632702	140.85167114976232	2.6941709792382125	0.995870895787603
0.011780440849472922	6.458040580638402e-25	4.686551797912042e8	1.7218551063160054e25	139.22311690632702	140.85167114976232	2.6941709792382125	0.995870895787603
0.011826489905747055	6.650228582219969e-25	4.686551797912042e8	1.7218551063160054e25	139.22311690632702	140.85167114976232	2.6941709792382125	0.995870895787603
0.011872718965096741	6.844913657644532e-25	4.686551797912042e8	1.7218551063160054e25	139.22311690632702	140.85167114976232	2.6941709792382125	0.995870895787603
0.011919128731143414	7.042119243137537e-25	4.686551797912042e8	1.7218551063160054e25	139.22311690632702	140.85167114976232	2.6941709792382125	0.995870895787603
0.011965719910259106	7.241868973656994e-25	4.686551797912042e8	1.7218551063160054e25	139.22311690632702	140.85167114976232	2.6941709792382125	0.995870895787603
0.012012493211576828	7.444186684507828e-25	4.686551797912042e8	1.7218551063160054e25	139.22311690632702	140.85167114976232	2.6941709792382125	0.995870895787603
0.012059449347001748	7.649096412972317e-25	4.686551797912042e8	1.7218551063160054e25	139.22311690632702	140.85167114976232	2.6941709792382125	0.995870895787603
0.012106589031221627	7.856622399950163e-25	4.686551797912042e8	1.7218551063160054e25	139.22311690632702	140.85167114976232	2.6941709792382125	0.995870895787603
0.012153912981718052	8.066789091614994e-25	4.686551797912042e8	1.7218551063160054e25	139.22311690632702	140.85167114976232	2.6941709792382125	0.995870895787603
0.012201421918777199	8.279621141081736e-25	4.686551797912042e8	1.7218551063160054e25	139.22311690632702	140.85167114976232	2.6941709792382125	0.995870895787603
0.012249116565500656	8.495143410087369e-25	4.686551797912042e8	1.7218551063160054e25	139.22311690632702	140.85167114976232	2.6941709792382125	0.995870895787603
0.012296997647816771	8.71338097068732e-25	4.686551797912042e8	1.7218551063160054e25	139.22311690632702	140.85167114976232	2.6941709792382125	0.995870895787603
0.0123450658944913	8.934359106961933e-25	4.686551797912042e8	1.7218551063160054e25	139.22311690632702	140.85167114976232	2.6941709792382125	0.995870895787603
0.012393322037138858	9.158103316740057e-25	4.686551797912042e8	1.7218551063160054e25	139.22311690632702	140.85167114976232	2.6941709792382125	0.995870895787603
0.012441766810233897	9.384639313333968e-25	4.686551797912042e8	1.7218551063160054e25	139.22311690632702	140.85167114976232	2.6941709792382125	0.995870895787603
0.012490400951121732	9.613993027288217e-25	4.686551797912042e8	1.7218551063160054e25	139.22311690632702	140.85167114976232	2.6941709792382125	0.995870895787603
0.012539225200030127	9.846190608144704e-25	4.686551797912042e8	1.7218551063160054e25	139.22311690632702	140.85167114976232	2.6941709792382125	0.995870895787603
0.012588240300080142	1.0081258426218247e-24	4.686551797912042e8	1.7218551063160054e25	139.22311690632702	140.85167114976232	2.6941709792382125	0.995870895787603
0.01263744699729781	1.031922307438998e-24	4.686551797912042e8	1.7218551063160054e25	139.22311690632702	140.85167114976232	2.6941709792382125	0.995870895787603
0.012686846040625342	1.056011136991258e-24	4.686551797912042e8	1.7218551063160054e25	139.22311690632702	140.85167114976232	2.6941709792382125	0.995870895787603
0.012736438181932356	1.0803950356229805e-24	4.686551797912042e8	1.7218551063160054e25	139.22311690632702	140.85167114976232	2.6941709792382125	0.995870895787603
0.0127862241760277	1.1050767304813116e-24	4.686551797912042e8	1.7218551063160054e25	139.22311690632702	140.85167114976232	2.6941709792382125	0.995870895787603
0.012836204780670515	1.1300589717009123e-24	4.686551797912042e8	1.7218551063160054e25	139.22311690632702	140.85167114976232	2.6941709792382125	0.995870895787603
0.01288638075658213	1.1553445325905535e-24	4.686551797912042e8	1.7218551063160054e25	139.22311690632702	140.85167114976232	2.6941709792382125	0.995870895787603
0.012936752867457497	1.1809362098209494e-24	4.686551797912042e8	1.7218551063160054e25	139.22311690632702	140.85167114976232	2.6941709792382125	0.995870895787603
0.012987321879976645	1.2068368236140708e-24	4.686551797912042e8	1.7218551063160054e25	139.22311690632702	140.85167114976232	2.6941709792382125	0.995870895787603
0.013038088563816724	1.2330492179342535e-24	4.686551797912042e8	1.7218551063160054e25	139.22311690632702	140.85167114976232	2.6941709792382125	0.995870895787603
0.013089053691663289	1.2595762606803954e-24	4.686551797912042e8	1.7218551063160054e25	139.22311690632702	140.85167114976232	2.6941709792382125	0.995870895787603
0.013140218039222449	1.2864208438801335e-24	4.686551797912042e8	1.7218551063160054e25	139.22311690632702	140.85167114976232	2.6941709792382125	0.995870895787603
0.013191582385232489	1.3135858838852471e-24	4.686551797912042e8	1.7218551063160054e25	139.22311690632702	140.85167114976232	2.6941709792382125	0.995870895787603
0.013243147511475584	1.3410743215686537e-24	4.686551797912042e8	1.7218551063160054e25	139.22311690632702	140.85167114976232	2.6941709792382125	0.995870895787603
0.01329491420279007	1.3688891225232361e-24	4.686551797912042e8	1.7218551063160054e25	139.22311690632702	140.85167114976232	2.6941709792382125	0.995870895787603
0.013346883247081942	1.3970332772618228e-24	4.686551797912042e8	1.7218551063160054e25	139.22311690632702	140.85167114976232	2.6941709792382125	0.995870895787603
0.01339905543533724	1.4255098014192078e-24	4.686551797912042e8	1.7218551063160054e25	139.22311690632702	140.85167114976232	2.6941709792382125	0.995870895787603
0.013451431561633934	1.4543217359554818e-24	4.686551797912042e8	1.7218551063160054e25	139.22311690632702	140.85167114976232	2.6941709792382125	0.995870895787603
0.013504012423153815	1.4834721473609635e-24	4.686551797912042e8	1.7218551063160054e25	139.22311690632702	140.85167114976232	2.6941709792382125	0.995870895787603
0.013556798820195047	1.5129641278630956e-24	4.686551797912042e8	1.7218551063160054e25	139.22311690632702	140.85167114976232	2.6941709792382125	0.995870895787603
0.013609791556183885	1.5428007956344986e-24	4.686551797912042e8	1.7218551063160054e25	139.22311690632702	140.85167114976232	2.6941709792382125	0.995870895787603
0.013662991437687297	1.5729852950031685e-24	4.686551797912042e8	1.7218551063160054e25	139.22311690632702	140.85167114976232	2.6941709792382125	0.995870895787603
0.013716399274425075	1.6035207966640186e-24	4.686551797912042e8	1.7218551063160054e25	139.22311690632702	140.85167114976232	2.6941709792382125	0.995870895787603
0.01377001587928199	1.6344104978921076e-24	4.686551797912042e8	1.7218551063160054e25	139.22311690632702	140.85167114976232	2.6941709792382125	0.995870895787603
0.013823842068320559	1.665657622757898e-24	4.686551797912042e8	1.7218551063160054e25	139.22311690632702	140.85167114976232	2.6941709792382125	0.995870895787603
0.013877878660793012	1.6972654223437183e-24	4.686551797912042e8	1.7218551063160054e25	139.22311690632702	140.85167114976232	2.6941709792382125	0.995870895787603
0.013932126479154212	1.729237174962492e-24	4.686551797912042e8	1.7218551063160054e25	139.22311690632702	140.85167114976232	2.6941709792382125	0.995870895787603
0.013986586349073734	1.761576186377668e-24	4.686551797912042e8	1.7218551063160054e25	139.22311690632702	140.85167114976232	2.6941709792382125	0.995870895787603
0.014041259099448802	1.7942857900253993e-24	4.686551797912042e8	1.7218551063160054e25	139.22311690632702	140.85167114976232	2.6941709792382125	0.995870895787603
0.014096145562416762	1.8273693472381622e-24	4.686551797912042e8	1.7218551063160054e25	139.22311690632702	140.85167114976232	2.6941709792382125	0.995870895787603
0.014151246573367565	1.8608302474701454e-24	4.686551797912042e8	1.7218551063160054e25	139.22311690632702	140.85167114976232	2.6941709792382125	0.995870895787603
0.014206562970956875	1.894671908524776e-24	4.686551797912042e8	1.7218551063160054e25	139.22311690632702	140.85167114976232	2.6941709792382125	0.995870895787603
0.014262095597118387	1.9288977767835374e-24	4.686551797912042e8	1.7218551063160054e25	139.22311690632702	140.85167114976232	2.6941709792382125	0.995870895787603
0.014317845297077036	1.9635113274371328e-24	4.686551797912042e8	1.7218551063160054e25	139.22311690632702	140.85167114976232	2.6941709792382125	0.995870895787603
0.014373812919361698	1.998516064718137e-24	4.686551797912042e8	1.7218551063160054e25	139.22311690632702	140.85167114976232	2.6941709792382125	0.995870895787603
0.014429999315817918	2.0339155221354858e-24	4.686551797912042e8	1.7218551063160054e25	139.22311690632702	140.85167114976232	2.6941709792382125	0.995870895787603
0.01448640534162129	2.069713262711201e-24	4.686551797912042e8	1.7218551063160054e25	139.22311690632702	140.85167114976232	2.6941709792382125	0.995870895787603
0.014543031855290009	2.105912879218455e-24	4.686551797912042e8	1.7218551063160054e25	139.22311690632702	140.85167114976232	2.6941709792382125	0.995870895787603
0.014599879718698335	2.1425179944220586e-24	4.686551797912042e8	1.7218551063160054e25	139.22311690632702	140.85167114976232	2.6941709792382125	0.995870895787603
0.01465694979708956	2.1795322613205316e-24	4.686551797912042e8	1.7218551063160054e25	139.22311690632702	140.85167114976232	2.6941709792382125	0.995870895787603
0.014714242959088967	2.2169593633900364e-24	4.686551797912042e8	1.7218551063160054e25	139.22311690632702	140.85167114976232	2.6941709792382125	0.995870895787603
0.014771760076717494	2.2548030148306978e-24	4.686551797912042e8	1.7218551063160054e25	139.22311690632702	140.85167114976232	2.6941709792382125	0.995870895787603
0.014829502025404513	2.2930669608142453e-24	4.686551797912042e8	1.7218551063160054e25	139.22311690632702	140.85167114976232	2.6941709792382125	0.995870895787603
0.014887469684001581	2.331754977734246e-24	4.686551797912042e8	1.7218551063160054e25	139.22311690632702	140.85167114976232	2.6941709792382125	0.995870895787603
0.014945663934795636	2.370870873457922e-24	4.686551797912042e8	1.7218551063160054e25	139.22311690632702	140.85167114976232	2.6941709792382125	0.995870895787603
0.015004085663522236	2.410418487579955e-24	4.686551797912042e8	1.7218551063160054e25	139.22311690632702	140.85167114976232	2.6941709792382125	0.995870895787603
0.015062735759379475	2.4504016916787372e-24	4.686551797912042e8	1.7218551063160054e25	139.22311690632702	140.85167114976232	2.6941709792382125	0.995870895787603
0.01512161511504103	2.4908243895740255e-24	4.686551797912042e8	1.7218551063160054e25	139.22311690632702	140.85167114976232	2.6941709792382125	0.995870895787603
0.015180724626670167	2.5316905175872666e-24	4.686551797912042e8	1.7218551063160054e25	139.22311690632702	140.85167114976232	2.6941709792382125	0.995870895787603
0.015240065193933205	2.573004044803584e-24	4.686551797912042e8	1.7218551063160054e25	139.22311690632702	140.85167114976232	2.6941709792382125	0.995870895787603
0.015299637720013012	2.614768973335822e-24	4.686551797912042e8	1.7218551063160054e25	139.22311690632702	140.85167114976232	2.6941709792382125	0.995870895787603
0.015359443111623204	2.6569893385911553e-24	4.686551797912042e8	1.7218551063160054e25	139.22311690632702	140.85167114976232	2.6941709792382125	0.995870895787603
0.015419482279021436	2.699669209539119e-24	4.686551797912042e8	1.7218551063160054e25	139.22311690632702	140.85167114976232	2.6941709792382125	0.995870895787603
0.01547975613602375	2.7428126889825083e-24	4.686551797912042e8	1.7218551063160054e25	139.22311690632702	140.85167114976232	2.6941709792382125	0.995870895787603
0.015540265600018002	2.7864239138297003e-24	4.686551797912042e8	1.7218551063160054e25	139.22311690632702	140.85167114976232	2.6941709792382125	0.995870895787603
0.015601011591978242	2.8305070553698173e-24	4.686551797912042e8	1.7218551063160054e25	139.22311690632702	140.85167114976232	2.6941709792382125	0.995870895787603
0.015661995036478565	2.8750663195496214e-24	4.686551797912042e8	1.7218551063160054e25	139.22311690632702	140.85167114976232	2.6941709792382125	0.995870895787603
0.015723216861706964	2.920105947252605e-24	4.686551797912042e8	1.7218551063160054e25	139.22311690632702	140.85167114976232	2.6941709792382125	0.995870895787603
0.015784677999479944	2.965630214580776e-24	4.686551797912042e8	1.7218551063160054e25	139.22311690632702	140.85167114976232	2.6941709792382125	0.995870895787603
0.01584637938525615	3.01164343313795e-24	4.686551797912042e8	1.7218551063160054e25	139.22311690632702	140.85167114976232	2.6941709792382125	0.995870895787603
0.01590832195815108	3.0581499503160284e-24	4.686551797912042e8	1.7218551063160054e25	139.22311690632702	140.85167114976232	2.6941709792382125	0.995870895787603
0.01597050666095118	3.1051541495830675e-24	4.686551797912042e8	1.7218551063160054e25	139.22311690632702	140.85167114976232	2.6941709792382125	0.995870895787603
0.016032934440128006	3.1526604507736142e-24	4.686551797912042e8	1.7218551063160054e25	139.22311690632702	140.85167114976232	2.6941709792382125	0.995870895787603
0.016095606245853062	3.2006733103818597e-24	4.686551797912042e8	1.7218551063160054e25	139.22311690632702	140.85167114976232	2.6941709792382125	0.995870895787603
0.016158523032011766	3.2491972218563742e-24	4.686551797912042e8	1.7218551063160054e25	139.22311690632702	140.85167114976232	2.6941709792382125	0.995870895787603
