r[m]	M[Msun]	rho[g/cm^3]	P[N/m^2]	n_e[pm^-3]	n_p[pm^-3]	muF_e[MeV]	B
0.009999999999999985	-5.311646439061692e-39	5.766183990866755e8	2.2759746806075946e25	171.24230010275932	173.2860106426366	2.9175071701579514	0.995553785862513
0.010038985783077818	1.440849431082769e-26	5.766183990866755e8	2.2759746806075946e25	171.24230010275932	173.2860106426366	2.9175071701579514	0.995553785862513
0.01007812355528387	2.921347573538485e-26	5.766183990866755e8	2.2759746806075946e25	171.24230010275932	173.2860106426366	2.9175071701579514	0.995553785862513
0.010117413909159661	4.430743453447087e-26	5.766183990866755e8	2.2759746806075946e25	171.24230010275932	173.2860106426366	2.9175071701579514	0.995553785862513
0.01015685743955682	5.958027817431826e-26	5.766183990866755e8	2.2759746806075946e25	171.24230010275932	173.2860106426366	2.9175071701579514	0.995553785862513
0.010196454743645923	7.491928895308032e-26	5.766183990866755e8	2.2759746806075946e25	171.24230010275932	173.2860106426366	2.9175071701579514	0.995553785862513
0.010236206420925795	9.020908102908983e-26	5.766183990866755e8	2.2759746806075946e25	171.24230010275932	173.2860106426366	2.9175071701579514	0.995553785862513
0.010276113073232411	1.0564413721804451e-25	5.766183990866755e8	2.2759746806075946e25	171.24230010275932	173.2860106426366	2.9175071701579514	0.995553785862513
0.010316175304748045	1.2150790648608707e-25	5.766183990866755e8	2.2759746806075946e25	171.24230010275932	173.2860106426366	2.9175071701579514	0.995553785862513
0.010356393722010424	1.3768381125236667e-25	5.766183990866755e8	2.2759746806075946e25	171.24230010275932	173.2860106426366	2.9175071701579514	0.995553785862513
0.010396768933921961	1.5405093743684173e-25	5.766183990866755e8	2.2759746806075946e25	171.24230010275932	173.2860106426366	2.9175071701579514	0.995553785862513
0.010437301551758786	1.7048548848996615e-25	5.766183990866755e8	2.2759746806075946e25	171.24230010275932	173.2860106426366	2.9175071701579514	0.995553785862513
0.010477992189180265	1.8686077732411434e-25	5.766183990866755e8	2.2759746806075946e25	171.24230010275932	173.2860106426366	2.9175071701579514	0.995553785862513
0.010518841462238129	2.0345202747410626e-25	5.766183990866755e8	2.2759746806075946e25	171.24230010275932	173.2860106426366	2.9175071701579514	0.995553785862513
0.010559849989385821	2.205641499590186e-25	5.766183990866755e8	2.2759746806075946e25	171.24230010275932	173.2860106426366	2.9175071701579514	0.995553785862513
0.010601018391487887	2.381346928968369e-25	5.766183990866755e8	2.2759746806075946e25	171.24230010275932	173.2860106426366	2.9175071701579514	0.995553785862513
0.010642347291829354	2.560996582113177e-25	5.766183990866755e8	2.2759746806075946e25	171.24230010275932	173.2860106426366	2.9175071701579514	0.995553785862513
0.010683837316125223	2.743934760458364e-25	5.766183990866755e8	2.2759746806075946e25	171.24230010275932	173.2860106426366	2.9175071701579514	0.995553785862513
0.010725489092529756	2.929489788144336e-25	5.766183990866755e8	2.2759746806075946e25	171.24230010275932	173.2860106426366	2.9175071701579514	0.995553785862513
0.010767303251646258	3.1169737488561313e-25	5.766183990866755e8	2.2759746806075946e25	171.24230010275932	173.2860106426366	2.9175071701579514	0.995553785862513
0.010809280426536451	3.3056822189367243e-25	5.766183990866755e8	2.2759746806075946e25	171.24230010275932	173.2860106426366	2.9175071701579514	0.995553785862513
0.010851421252730096	3.4948939967296992e-25	5.766183990866755e8	2.2759746806075946e25	171.24230010275932	173.2860106426366	2.9175071701579514	0.995553785862513
0.010893726368234609	3.683870828100751e-25	5.766183990866755e8	2.2759746806075946e25	171.24230010275932	173.2860106426366	2.9175071701579514	0.995553785862513
0.010936196413544735	3.8718571280881773e-25	5.766183990866755e8	2.2759746806075946e25	171.24230010275932	173.2860106426366	2.9175071701579514	0.995553785862513
0.010978832031652282	4.059430031117777e-25	5.766183990866755e8	2.2759746806075946e25	171.24230010275932	173.2860106426366	2.9175071701579514	0.995553785862513
0.011021633868055682	4.252383287328889e-25	5.766183990866755e8	2.2759746806075946e25	171.24230010275932	173.2860106426366	2.9175071701579514	0.995553785862513
0.011064602570770013	4.450844348354731e-25	5.766183990866755e8	2.2759746806075946e25	171.24230010275932	173.2860106426366	2.9175071701579514	0.995553785862513
0.011107738790336661	4.654054173816164e-25	5.766183990866755e8	2.2759746806075946e25	171.24230010275932	173.2860106426366	2.9175071701579514	0.995553785862513
0.011151043179833193	4.861235065984848e-25	5.766183990866755e8	2.2759746806075946e25	171.24230010275932	173.2860106426366	2.9175071701579514	0.995553785862513
0.011194516394883246	5.071590361682902e-25	5.766183990866755e8	2.2759746806075946e25	171.24230010275932	173.2860106426366	2.9175071701579514	0.995553785862513
0.01123815909366651	5.284304119819386e-25	5.766183990866755e8	2.2759746806075946e25	171.24230010275932	173.2860106426366	2.9175071701579514	0.995553785862513
0.011281971936928495	5.498540804504884e-25	5.766183990866755e8	2.2759746806075946e25	171.24230010275932	173.2860106426366	2.9175071701579514	0.995553785862513
0.011325955587990827	5.713444963689817e-25	5.766183990866755e8	2.2759746806075946e25	171.24230010275932	173.2860106426366	2.9175071701579514	0.995553785862513
0.011370110712761084	5.928140903262945e-25	5.766183990866755e8	2.2759746806075946e25	171.24230010275932	173.2860106426366	2.9175071701579514	0.995553785862513
0.011414437979742951	6.141732356554411e-25	5.766183990866755e8	2.2759746806075946e25	171.24230010275932	173.2860106426366	2.9175071701579514	0.995553785862513
0.011458938060046315	6.354237909762719e-25	5.766183990866755e8	2.2759746806075946e25	171.24230010275932	173.2860106426366	2.9175071701579514	0.995553785862513
0.011503611627397445	6.569144447331674e-25	5.766183990866755e8	2.2759746806075946e25	171.24230010275932	173.2860106426366	2.9175071701579514	0.995553785862513
0.011548459358149228	6.786910245809415e-25	5.766183990866755e8	2.2759746806075946e25	171.24230010275932	173.2860106426366	2.9175071701579514	0.995553785862513
0.011593481931291227	7.007562244385271e-25	5.766183990866755e8	2.2759746806075946e25	171.24230010275932	173.2860106426366	2.9175071701579514	0.995553785862513
0.011638680028460238	7.231127610647538e-25	5.766183990866755e8	2.2759746806075946e25	171.24230010275932	173.2860106426366	2.9175071701579514	0.995553785862513
0.011684054333950426	7.457633742436914e-25	5.766183990866755e8	2.2759746806075946e25	171.24230010275932	173.2860106426366	2.9175071701579514	0.995553785862513
0.011729605534723726	7.687108269715687e-25	5.766183990866755e8	2.2759746806075946e25	171.24230010275932	173.2860106426366	2.9175071701579514	0.995553785862513
0.011775334320420255	7.9195790564517455e-25	5.766183990866755e8	2.2759746806075946e25	171.24230010275932	173.2860106426366	2.9175071701579514	0.995553785862513
0.011821241383368791	8.155074202517588e-25	5.766183990866755e8	2.2759746806075946e25	171.24230010275932	173.2860106426366	2.9175071701579514	0.995553785862513
0.011867327418597064	8.393622045603424e-25	5.766183990866755e8	2.2759746806075946e25	171.24230010275932	173.2860106426366	2.9175071701579514	0.995553785862513
0.01191359312384257	8.635251163147884e-25	5.766183990866755e8	2.2759746806075946e25	171.24230010275932	173.2860106426366	2.9175071701579514	0.995553785862513
0.01196003919956294	8.879990374281563e-25	5.766183990866755e8	2.2759746806075946e25	171.24230010275932	173.2860106426366	2.9175071701579514	0.995553785862513
0.012006666348946596	9.127868741787433e-25	5.766183990866755e8	2.2759746806075946e25	171.24230010275932	173.2860106426366	2.9175071701579514	0.995553785862513
0.01205347527792339	9.378915574076331e-25	5.766183990866755e8	2.2759746806075946e25	171.24230010275932	173.2860106426366	2.9175071701579514	0.995553785862513
0.012100466695175305	9.633160427178532e-25	5.766183990866755e8	2.2759746806075946e25	171.24230010275932	173.2860106426366	2.9175071701579514	0.995553785862513
0.01214764131214722	9.89063310675103e-25	5.766183990866755e8	2.2759746806075946e25	171.24230010275932	173.2860106426366	2.9175071701579514	0.995553785862513
0.012194999843057493	1.0151363670099746e-24	5.766183990866755e8	2.2759746806075946e25	171.24230010275932	173.2860106426366	2.9175071701579514	0.995553785862513
0.012242543004909057	1.0415382428220323e-24	5.766183990866755e8	2.2759746806075946e25	171.24230010275932	173.2860106426366	2.9175071701579514	0.995553785862513
0.0122902715175001	1.0682719947852623e-24	5.766183990866755e8	2.2759746806075946e25	171.24230010275932	173.2860106426366	2.9175071701579514	0.995553785862513
0.012338186103434994	1.0953407053552752e-24	5.766183990866755e8	2.2759746806075946e25	171.24230010275932	173.2860106426366	2.9175071701579514	0.995553785862513
0.012386287488135242	1.1227474829781349e-24	5.766183990866755e8	2.2759746806075946e25	171.24230010275932	173.2860106426366	2.9175071701579514	0.995553785862513
0.012434576399850503	1.15049546230088e-24	5.766183990866755e8	2.2759746806075946e25	171.24230010275932	173.2860106426366	2.9175071701579514	0.995553785862513
0.012483053569669436	1.1785878043835736e-24	5.766183990866755e8	2.2759746806075946e25	171.24230010275932	173.2860106426366	2.9175071701579514	0.995553785862513
0.012531719731531048	1.207027696913321e-24	5.766183990866755e8	2.2759746806075946e25	171.24230010275932	173.2860106426366	2.9175071701579514	0.995553785862513
0.012580575622235617	1.2358183544197076e-24	5.766183990866755e8	2.2759746806075946e25	171.24230010275932	173.2860106426366	2.9175071701579514	0.995553785862513
0.012629621981455893	1.26496301849209e-24	5.766183990866755e8	2.2759746806075946e25	171.24230010275932	173.2860106426366	2.9175071701579514	0.995553785862513
0.0126788595517483	1.294464957998588e-24	5.766183990866755e8	2.2759746806075946e25	171.24230010275932	173.2860106426366	2.9175071701579514	0.995553785862513
0.012728289078564178	1.3243274693068113e-24	5.766183990866755e8	2.2759746806075946e25	171.24230010275932	173.2860106426366	2.9175071701579514	0.995553785862513
0.012777911310261118	1.3545538765063824e-24	5.766183990866755e8	2.2759746806075946e25	171.24230010275932	173.2860106426366	2.9175071701579514	0.995553785862513
0.01282772699811408	1.3851475316330499e-24	5.766183990866755e8	2.2759746806075946e25	171.24230010275932	173.2860106426366	2.9175071701579514	0.995553785862513
0.012877736896327095	1.4161118148949293e-24	5.766183990866755e8	2.2759746806075946e25	171.24230010275932	173.2860106426366	2.9175071701579514	0.995553785862513
0.012927941762044457	1.4474501349001936e-24	5.766183990866755e8	2.2759746806075946e25	171.24230010275932	173.2860106426366	2.9175071701579514	0.995553785862513
0.01297834235536225	1.4791659288867487e-24	5.766183990866755e8	2.2759746806075946e25	171.24230010275932	173.2860106426366	2.9175071701579514	0.995553785862513
0.013028939439339854	1.5112626629537055e-24	5.766183990866755e8	2.2759746806075946e25	171.24230010275932	173.2860106426366	2.9175071701579514	0.995553785862513
0.013079733780011486	1.5437438322946673e-24	5.766183990866755e8	2.2759746806075946e25	171.24230010275932	173.2860106426366	2.9175071701579514	0.995553785862513
0.013130726146397875	1.576612961432942e-24	5.766183990866755e8	2.2759746806075946e25	171.24230010275932	173.2860106426366	2.9175071701579514	0.995553785862513
0.013181917310517667	1.6098736044584071e-24	5.766183990866755e8	2.2759746806075946e25	171.24230010275932	173.2860106426366	2.9175071701579514	0.995553785862513
0.013233308047399443	1.643529345266637e-24	5.766183990866755e8	2.2759746806075946e25	171.24230010275932	173.2860106426366	2.9175071701579514	0.995553785862513
0.01328489913509325	1.6775837977995697e-24	5.766183990866755e8	2.2759746806075946e25	171.24230010275932	173.2860106426366	2.9175071701579514	0.995553785862513
0.013336691354682415	1.7120406062882464e-24	5.766183990866755e8	2.2759746806075946e25	171.24230010275932	173.2860106426366	2.9175071701579514	0.995553785862513
0.013388685490295382	1.7469034454974646e-24	5.766183990866755e8	2.2759746806075946e25	171.24230010275932	173.2860106426366	2.9175071701579514	0.995553785862513
0.013440882329117637	1.7821760209724034e-24	5.766183990866755e8	2.2759746806075946e25	171.24230010275932	173.2860106426366	2.9175071701579514	0.995553785862513
0.013493282661403403	1.8178620692870062e-24	5.766183990866755e8	2.2759746806075946e25	171.24230010275932	173.2860106426366	2.9175071701579514	0.995553785862513
0.013545887280487941	1.8539653582947356e-24	5.766183990866755e8	2.2759746806075946e25	171.24230010275932	173.2860106426366	2.9175071701579514	0.995553785862513
0.013598696982799328	1.8904896873809197e-24	5.766183990866755e8	2.2759746806075946e25	171.24230010275932	173.2860106426366	2.9175071701579514	0.995553785862513
0.01365171256787059	1.927438887717308e-24	5.766183990866755e8	2.2759746806075946e25	171.24230010275932	173.2860106426366	2.9175071701579514	0.995553785862513
0.013704934838351784	1.964816822518592e-24	5.766183990866755e8	2.2759746806075946e25	171.24230010275932	173.2860106426366	2.9175071701579514	0.995553785862513
0.013758364600022168	2.0026273873009843e-24	5.766183990866755e8	2.2759746806075946e25	171.24230010275932	173.2860106426366	2.9175071701579514	0.995553785862513
0.013812002661802445	2.040874510142862e-24	5.766183990866755e8	2.2759746806075946e25	171.24230010275932	173.2860106426366	2.9175071701579514	0.995553785862513
0.013865849835766794	2.079562151947309e-24	5.766183990866755e8	2.2759746806075946e25	171.24230010275932	173.2860106426366	2.9175071701579514	0.995553785862513
0.013919906937155497	2.1186943067071173e-24	5.766183990866755e8	2.2759746806075946e25	171.24230010275932	173.2860106426366	2.9175071701579514	0.995553785862513
0.013974174784387054	2.158275001771501e-24	5.766183990866755e8	2.2759746806075946e25	171.24230010275932	173.2860106426366	2.9175071701579514	0.995553785862513
0.01402865419907064	2.198308298115134e-24	5.766183990866755e8	2.2759746806075946e25	171.24230010275932	173.2860106426366	2.9175071701579514	0.995553785862513
0.014083346006018531	2.2387982906092577e-24	5.766183990866755e8	2.2759746806075946e25	171.24230010275932	173.2860106426366	2.9175071701579514	0.995553785862513
0.01413825103325866	2.2797491082950207e-24	5.766183990866755e8	2.2759746806075946e25	171.24230010275932	173.2860106426366	2.9175071701579514	0.995553785862513
0.014193370112046917	2.3211649146587303e-24	5.766183990866755e8	2.2759746806075946e25	171.24230010275932	173.2860106426366	2.9175071701579514	0.995553785862513
0.014248704076880085	2.3630499079097532e-24	5.766183990866755e8	2.2759746806075946e25	171.24230010275932	173.2860106426366	2.9175071701579514	0.995553785862513
0.014304253765508234	2.4054083212601625e-24	5.766183990866755e8	2.2759746806075946e25	171.24230010275932	173.2860106426366	2.9175071701579514	0.995553785862513
0.014360020018947475	2.448244423206837e-24	5.766183990866755e8	2.2759746806075946e25	171.24230010275932	173.2860106426366	2.9175071701579514	0.995553785862513
0.014416003681492678	2.4915625178157465e-24	5.766183990866755e8	2.2759746806075946e25	171.24230010275932	173.2860106426366	2.9175071701579514	0.995553785862513
0.014472205600730271	2.535366945008491e-24	5.766183990866755e8	2.2759746806075946e25	171.24230010275932	173.2860106426366	2.9175071701579514	0.995553785862513
0.014528626627551116	2.5796620808511665e-24	5.766183990866755e8	2.2759746806075946e25	171.24230010275932	173.2860106426366	2.9175071701579514	0.995553785862513
0.014585267616163173	2.6244523378452805e-24	5.766183990866755e8	2.2759746806075946e25	171.24230010275932	173.2860106426366	2.9175071701579514	0.995553785862513
0.014642129424104762	2.669742165221433e-24	5.766183990866755e8	2.2759746806075946e25	171.24230010275932	173.2860106426366	2.9175071701579514	0.995553785862513
0.014699212912257334	2.715536049234885e-24	5.766183990866755e8	2.2759746806075946e25	171.24230010275932	173.2860106426366	2.9175071701579514	0.995553785862513
0.014756518944858549	2.7618385134636794e-24	5.766183990866755e8	2.2759746806075946e25	171.24230010275932	173.2860106426366	2.9175071701579514	0.995553785862513
0.014814048389515368	2.808654119109089e-24	5.766183990866755e8	2.2759746806075946e25	171.24230010275932	173.2860106426366	2.9175071701579514	0.995553785862513
0.014871802117217187	2.855987465298448e-24	5.766183990866755e8	2.2759746806075946e25	171.24230010275932	173.2860106426366	2.9175071701579514	0.995553785862513
0.014929781002349077	2.9038431893904182e-24	5.766183990866755e8	2.2759746806075946e25	171.24230010275932	173.2860106426366	2.9175071701579514	0.995553785862513
0.014987985922704792	2.9522259672824563e-24	5.766183990866755e8	2.2759746806075946e25	171.24230010275932	173.2860106426366	2.9175071701579514	0.995553785862513
0.015046417759500412	3.001140513721185e-24	5.766183990866755e8	2.2759746806075946e25	171.24230010275932	173.2860106426366	2.9175071701579514	0.995553785862513
0.015105077397387447	3.0505915826147424e-24	5.766183990866755e8	2.2759746806075946e25	171.24230010275932	173.2860106426366	2.9175071701579514	0.995553785862513
0.015163965724466292	3.1005839673478572e-24	5.766183990866755e8	2.2759746806075946e25	171.24230010275932	173.2860106426366	2.9175071701579514	0.995553785862513
0.015223083632299664	3.151122501099354e-24	5.766183990866755e8	2.2759746806075946e25	171.24230010275932	173.2860106426366	2.9175071701579514	0.995553785862513
0.015282432015926183	3.2022120571622605e-24	5.766183990866755e8	2.2759746806075946e25	171.24230010275932	173.2860106426366	2.9175071701579514	0.995553785862513
0.015342011773873648	3.2538575492661466e-24	5.766183990866755e8	2.2759746806075946e25	171.24230010275932	173.2860106426366	2.9175071701579514	0.995553785862513
0.015401823808173029	3.3060639319025664e-24	5.766183990866755e8	2.2759746806075946e25	171.24230010275932	173.2860106426366	2.9175071701579514	0.995553785862513
0.015461869024371874	3.358836200652565e-24	5.766183990866755e8	2.2759746806075946e25	171.24230010275932	173.2860106426366	2.9175071701579514	0.995553785862513
0.015522148331548077	3.412179392517016e-24	5.766183990866755e8	2.2759746806075946e25	171.24230010275932	173.2860106426366	2.9175071701579514	0.995553785862513
0.015582662642323648	3.4660985862495406e-24	5.766183990866755e8	2.2759746806075946e25	171.24230010275932	173.2860106426366	2.9175071701579514	0.995553785862513
0.01564341287287852	3.52059890269205e-24	5.766183990866755e8	2.2759746806075946e25	171.24230010275932	173.2860106426366	2.9175071701579514	0.995553785862513
0.015704399942964485	3.5756855051130226e-24	5.766183990866755e8	2.2759746806075946e25	171.24230010275932	173.2860106426366	2.9175071701579514	0.995553785862513
0.01576562477591888	3.631363599548161e-24	5.766183990866755e8	2.2759746806075946e25	171.24230010275932	173.2860106426366	2.9175071701579514	0.995553785862513
0.01582708829867893	3.68763843514432e-24	5.766183990866755e8	2.2759746806075946e25	171.24230010275932	173.2860106426366	2.9175071701579514	0.995553785862513
0.015888791441795534	3.744515304505592e-24	5.766183990866755e8	2.2759746806075946e25	171.24230010275932	173.2860106426366	2.9175071701579514	0.995553785862513
0.01595073513944741	3.8019995440423994e-24	5.766183990866755e8	2.2759746806075946e25	171.24230010275932	173.2860106426366	2.9175071701579514	0.995553785862513
0.016012920329455258	3.8600965343233445e-24	5.766183990866755e8	2.2759746806075946e25	171.24230010275932	173.2860106426366	2.9175071701579514	0.995553785862513
0.016075347953296	3.9188117004298346e-24	5.766183990866755e8	2.2759746806075946e25	171.24230010275932	173.2860106426366	2.9175071701579514	0.995553785862513
0.01613801895611679	3.9781505123132686e-24	5.766183990866755e8	2.2759746806075946e25	171.24230010275932	173.2860106426366	2.9175071701579514	0.995553785862513
0.016200934286749704	4.038118485155644e-24	5.766183990866755e8	2.2759746806075946e25	171.24230010275932	173.2860106426366	2.9175071701579514	0.995553785862513
