r[m]	M[Msun]	rho[g/cm^3]	P[N/m^2]	n_e[pm^-3]	n_p[pm^-3]	muF_e[MeV]	B
0.010000000000000009	1.3716150298336521e-39	2.377661902652113e8	6.877676925291092e24	70.63403228983441	71.47812008828079	2.063855042476424	0.9967752756265451
0.010039421046539222	6.0134640476954966e-27	2.377661902652113e8	6.877676925291092e24	70.63403228983441	71.47812008828079	2.063855042476424	0.9967752756265451
0.010078997494969499	1.2219171632695723e-26	2.377661902652113e8	6.877676925291092e24	70.63403228983441	71.47812008828079	2.063855042476424	0.9967752756265451
0.010118729957901279	1.8595146070723565e-26	2.377661902652113e8	6.877676925291092e24	70.63403228983441	71.47812008828079	2.063855042476424	0.9967752756265451
0.010158619050360095	2.511885871130523e-26	2.377661902652113e8	6.877676925291092e24	70.63403228983441	71.47812008828079	2.063855042476424	0.9967752756265451
0.01019866538979593	3.176721969330379e-26	2.377661902652113e8	6.877676925291092e24	70.63403228983441	71.47812008828079	2.063855042476424	0.9967752756265451
0.010238869596092872	3.8516568567934047e-26	2.377661902652113e8	6.877676925291092e24	70.63403228983441	71.47812008828079	2.063855042476424	0.9967752756265451
0.010279232291578523	4.5342664787406007e-26	2.377661902652113e8	6.877676925291092e24	70.63403228983441	71.47812008828079	2.063855042476424	0.9967752756265451
0.010319754101033892	5.22206780575402e-26	2.377661902652113e8	6.877676925291092e24	70.63403228983441	71.47812008828079	2.063855042476424	0.9967752756265451
0.010360435651702901	5.912517855240188e-26	2.377661902652113e8	6.877676925291092e24	70.63403228983441	71.47812008828079	2.063855042476424	0.9967752756265451
0.010401277573302174	6.603012698923771e-26	2.377661902652113e8	6.877676925291092e24	70.63403228983441	71.47812008828079	2.063855042476424	0.9967752756265451
0.010442280498030613	7.290886456178503e-26	2.377661902652113e8	6.877676925291092e24	70.63403228983441	71.47812008828079	2.063855042476424	0.9967752756265451
0.010483445060579452	7.973668384768749e-26	2.377661902652113e8	6.877676925291092e24	70.63403228983441	71.47812008828079	2.063855042476424	0.9967752756265451
0.01052477189814189	8.66836831798758e-26	2.377661902652113e8	6.877676925291092e24	70.63403228983441	71.47812008828079	2.063855042476424	0.9967752756265451
0.010566261650423058	9.38470079153056e-26	2.377661902652113e8	6.877676925291092e24	70.63403228983441	71.47812008828079	2.063855042476424	0.9967752756265451
0.01060791495964974	1.0119998056994578e-25	2.377661902652113e8	6.877676925291092e24	70.63403228983441	71.47812008828079	2.063855042476424	0.9967752756265451
0.010649732470580575	1.0871525642416472e-25	2.377661902652113e8	6.877676925291092e24	70.63403228983441	71.47812008828079	2.063855042476424	0.9967752756265451
0.010691714830515866	1.163648123608821e-25	2.377661902652113e8	6.877676925291092e24	70.63403228983441	71.47812008828079	2.063855042476424	0.9967752756265451
0.010733862689307686	1.24119935543791e-25	2.377661902652113e8	6.877676925291092e24	70.63403228983441	71.47812008828079	2.063855042476424	0.9967752756265451
0.010776176699369757	1.319512119334366e-25	2.377661902652113e8	6.877676925291092e24	70.63403228983441	71.47812008828079	2.063855042476424	0.9967752756265451
0.01081865751568782	1.3982851463912885e-25	2.377661902652113e8	6.877676925291092e24	70.63403228983441	71.47812008828079	2.063855042476424	0.9967752756265451
0.010861305795829638	1.4772099210435316e-25	2.377661902652113e8	6.877676925291092e24	70.63403228983441	71.47812008828079	2.063855042476424	0.9967752756265451
0.010904122199955039	1.5559705612355321e-25	2.377661902652113e8	6.877676925291092e24	70.63403228983441	71.47812008828079	2.063855042476424	0.9967752756265451
0.010947107390826409	1.634243696881212e-25	2.377661902652113e8	6.877676925291092e24	70.63403228983441	71.47812008828079	2.063855042476424	0.9967752756265451
0.010990262033818761	1.7128625138433506e-25	2.377661902652113e8	6.877676925291092e24	70.63403228983441	71.47812008828079	2.063855042476424	0.9967752756265451
0.011033586796930136	1.7941403108731629e-25	2.377661902652113e8	6.877676925291092e24	70.63403228983441	71.47812008828079	2.063855042476424	0.9967752756265451
0.011077082350791759	1.8780191377221801e-25	2.377661902652113e8	6.877676925291092e24	70.63403228983441	71.47812008828079	2.063855042476424	0.9967752756265451
0.011120749368678682	1.964348878815184e-25	2.377661902652113e8	6.877676925291092e24	70.63403228983441	71.47812008828079	2.063855042476424	0.9967752756265451
0.011164588526520044	2.0529754419599068e-25	2.377661902652113e8	6.877676925291092e24	70.63403228983441	71.47812008828079	2.063855042476424	0.9967752756265451
0.0112086005029096	2.1437406907848445e-25	2.377661902652113e8	6.877676925291092e24	70.63403228983441	71.47812008828079	2.063855042476424	0.9967752756265451
0.011252785979116062	2.2364823762018153e-25	2.377661902652113e8	6.877676925291092e24	70.63403228983441	71.47812008828079	2.063855042476424	0.9967752756265451
0.011297145639093916	2.331034066881619e-25	2.377661902652113e8	6.877676925291092e24	70.63403228983441	71.47812008828079	2.063855042476424	0.9967752756265451
0.011341680169493815	2.4272250787278286e-25	2.377661902652113e8	6.877676925291092e24	70.63403228983441	71.47812008828079	2.063855042476424	0.9967752756265451
0.011386390259673309	2.524880403336974e-25	2.377661902652113e8	6.877676925291092e24	70.63403228983441	71.47812008828079	2.063855042476424	0.9967752756265451
0.011431276601707329	2.623820635430321e-25	2.377661902652113e8	6.877676925291092e24	70.63403228983441	71.47812008828079	2.063855042476424	0.9967752756265451
0.011476339890399182	2.7238618992453283e-25	2.377661902652113e8	6.877676925291092e24	70.63403228983441	71.47812008828079	2.063855042476424	0.9967752756265451
0.011521580823291105	2.824815773870829e-25	2.377661902652113e8	6.877676925291092e24	70.63403228983441	71.47812008828079	2.063855042476424	0.9967752756265451
0.01156700010067518	2.926489217513656e-25	2.377661902652113e8	6.877676925291092e24	70.63403228983441	71.47812008828079	2.063855042476424	0.9967752756265451
0.011612598425603958	3.0286844906811533e-25	2.377661902652113e8	6.877676925291092e24	70.63403228983441	71.47812008828079	2.063855042476424	0.9967752756265451
0.01165837650390165	3.1311990782670134e-25	2.377661902652113e8	6.877676925291092e24	70.63403228983441	71.47812008828079	2.063855042476424	0.9967752756265451
0.011704335044174848	3.2338256105236984e-25	2.377661902652113e8	6.877676925291092e24	70.63403228983441	71.47812008828079	2.063855042476424	0.9967752756265451
0.011750474757823589	3.3363517829084492e-25	2.377661902652113e8	6.877676925291092e24	70.63403228983441	71.47812008828079	2.063855042476424	0.9967752756265451
0.011796796359052189	3.438560274786646e-25	2.377661902652113e8	6.877676925291092e24	70.63403228983441	71.47812008828079	2.063855042476424	0.9967752756265451
0.011843300564880569	3.5402286669791585e-25	2.377661902652113e8	6.877676925291092e24	70.63403228983441	71.47812008828079	2.063855042476424	0.9967752756265451
0.011889988095155223	3.64112935813632e-25	2.377661902652113e8	6.877676925291092e24	70.63403228983441	71.47812008828079	2.063855042476424	0.9967752756265451
0.011936859672560203	3.741651298697615e-25	2.377661902652113e8	6.877676925291092e24	70.63403228983441	71.47812008828079	2.063855042476424	0.9967752756265451
0.011983916022628606	3.845160505415025e-25	2.377661902652113e8	6.877676925291092e24	70.63403228983441	71.47812008828079	2.063855042476424	0.9967752756265451
0.012031157873753612	3.9520251386162377e-25	2.377661902652113e8	6.877676925291092e24	70.63403228983441	71.47812008828079	2.063855042476424	0.9967752756265451
0.012078585957199846	4.062034028027432e-25	2.377661902652113e8	6.877676925291092e24	70.63403228983441	71.47812008828079	2.063855042476424	0.9967752756265451
0.012126201007114512	4.174970457514362e-25	2.377661902652113e8	6.877676925291092e24	70.63403228983441	71.47812008828079	2.063855042476424	0.9967752756265451
0.012174003760539042	4.290612071070819e-25	2.377661902652113e8	6.877676925291092e24	70.63403228983441	71.47812008828079	2.063855042476424	0.9967752756265451
0.012221994957420318	4.408730777450844e-25	2.377661902652113e8	6.877676925291092e24	70.63403228983441	71.47812008828079	2.063855042476424	0.9967752756265451
0.012270175340622216	4.529092653428444e-25	2.377661902652113e8	6.877676925291092e24	70.63403228983441	71.47812008828079	2.063855042476424	0.9967752756265451
0.012318545655936911	4.6514578456651795e-25	2.377661902652113e8	6.877676925291092e24	70.63403228983441	71.47812008828079	2.063855042476424	0.9967752756265451
0.012367106652096723	4.775580471169041e-25	2.377661902652113e8	6.877676925291092e24	70.63403228983441	71.47812008828079	2.063855042476424	0.9967752756265451
0.012415859080785492	4.901208516323368e-25	2.377661902652113e8	6.877676925291092e24	70.63403228983441	71.47812008828079	2.063855042476424	0.9967752756265451
0.012464803696650338	5.028083734468974e-25	2.377661902652113e8	6.877676925291092e24	70.63403228983441	71.47812008828079	2.063855042476424	0.9967752756265451
0.01251394125731312	5.155941542018496e-25	2.377661902652113e8	6.877676925291092e24	70.63403228983441	71.47812008828079	2.063855042476424	0.9967752756265451
0.01256327252338247	5.284510913085788e-25	2.377661902652113e8	6.877676925291092e24	70.63403228983441	71.47812008828079	2.063855042476424	0.9967752756265451
0.012612798258465376	5.413514272607949e-25	2.377661902652113e8	6.877676925291092e24	70.63403228983441	71.47812008828079	2.063855042476424	0.9967752756265451
0.012662519229179095	5.542667387942114e-25	2.377661902652113e8	6.877676925291092e24	70.63403228983441	71.47812008828079	2.063855042476424	0.9967752756265451
0.01271243620516281	5.671679258915203e-25	2.377661902652113e8	6.877676925291092e24	70.63403228983441	71.47812008828079	2.063855042476424	0.9967752756265451
0.012762549959089858	5.800252006308361e-25	2.377661902652113e8	6.877676925291092e24	70.63403228983441	71.47812008828079	2.063855042476424	0.9967752756265451
0.012812861266679541	5.9280807587527065e-25	2.377661902652113e8	6.877676925291092e24	70.63403228983441	71.47812008828079	2.063855042476424	0.9967752756265451
0.012863370906708966	6.0548535380166645e-25	2.377661902652113e8	6.877676925291092e24	70.63403228983441	71.47812008828079	2.063855042476424	0.9967752756265451
0.012914079661025417	6.18155721418738e-25	2.377661902652113e8	6.877676925291092e24	70.63403228983441	71.47812008828079	2.063855042476424	0.9967752756265451
0.012964988314558255	6.310108788929163e-25	2.377661902652113e8	6.877676925291092e24	70.63403228983441	71.47812008828079	2.063855042476424	0.9967752756265451
0.013016097655331162	6.440549709351157e-25	2.377661902652113e8	6.877676925291092e24	70.63403228983441	71.47812008828079	2.063855042476424	0.9967752756265451
0.013067408474474138	6.572898345502317e-25	2.377661902652113e8	6.877676925291092e24	70.63403228983441	71.47812008828079	2.063855042476424	0.9967752756265451
0.013118921566236052	6.707173226130083e-25	2.377661902652113e8	6.877676925291092e24	70.63403228983441	71.47812008828079	2.063855042476424	0.9967752756265451
0.013170637727996738	6.8433930399871505e-25	2.377661902652113e8	6.877676925291092e24	70.63403228983441	71.47812008828079	2.063855042476424	0.9967752756265451
0.013222557760279438	6.981576637149387e-25	2.377661902652113e8	6.877676925291092e24	70.63403228983441	71.47812008828079	2.063855042476424	0.9967752756265451
0.01327468246676298	7.12174303034372e-25	2.377661902652113e8	6.877676925291092e24	70.63403228983441	71.47812008828079	2.063855042476424	0.9967752756265451
0.013327012654294531	7.263911396287932e-25	2.377661902652113e8	6.877676925291092e24	70.63403228983441	71.47812008828079	2.063855042476424	0.9967752756265451
0.013379549132901892	7.408101077040142e-25	2.377661902652113e8	6.877676925291092e24	70.63403228983441	71.47812008828079	2.063855042476424	0.9967752756265451
0.013432292715806128	7.554331581359642e-25	2.377661902652113e8	6.877676925291092e24	70.63403228983441	71.47812008828079	2.063855042476424	0.9967752756265451
0.01348524421943394	7.702622586078155e-25	2.377661902652113e8	6.877676925291092e24	70.63403228983441	71.47812008828079	2.063855042476424	0.9967752756265451
0.013538404463430636	7.852993937483417e-25	2.377661902652113e8	6.877676925291092e24	70.63403228983441	71.47812008828079	2.063855042476424	0.9967752756265451
0.013591774270672591	8.005465652712498e-25	2.377661902652113e8	6.877676925291092e24	70.63403228983441	71.47812008828079	2.063855042476424	0.9967752756265451
0.013645354467280114	8.16005792115727e-25	2.377661902652113e8	6.877676925291092e24	70.63403228983441	71.47812008828079	2.063855042476424	0.9967752756265451
0.013699145882629984	8.31679110588012e-25	2.377661902652113e8	6.877676925291092e24	70.63403228983441	71.47812008828079	2.063855042476424	0.9967752756265451
0.013753149349368646	8.475685745042901e-25	2.377661902652113e8	6.877676925291092e24	70.63403228983441	71.47812008828079	2.063855042476424	0.9967752756265451
0.013807365703424923	8.636762553345695e-25	2.377661902652113e8	6.877676925291092e24	70.63403228983441	71.47812008828079	2.063855042476424	0.9967752756265451
0.013861795784022786	8.800042423477329e-25	2.377661902652113e8	6.877676925291092e24	70.63403228983441	71.47812008828079	2.063855042476424	0.9967752756265451
0.013916440433694688	8.965546427578972e-25	2.377661902652113e8	6.877676925291092e24	70.63403228983441	71.47812008828079	2.063855042476424	0.9967752756265451
0.013971300498294372	9.133295818717896e-25	2.377661902652113e8	6.877676925291092e24	70.63403228983441	71.47812008828079	2.063855042476424	0.9967752756265451
0.014026376827010087	9.303312032374096e-25	2.377661902652113e8	6.877676925291092e24	70.63403228983441	71.47812008828079	2.063855042476424	0.9967752756265451
0.014081670272377497	9.47561668793782e-25	2.377661902652113e8	6.877676925291092e24	70.63403228983441	71.47812008828079	2.063855042476424	0.9967752756265451
0.01413718169029322	9.650231590220974e-25	2.377661902652113e8	6.877676925291092e24	70.63403228983441	71.47812008828079	2.063855042476424	0.9967752756265451
0.014192911940027857	9.827178730978834e-25	2.377661902652113e8	6.877676925291092e24	70.63403228983441	71.47812008828079	2.063855042476424	0.9967752756265451
0.014248861884239392	1.0006480290445127e-24	2.377661902652113e8	6.877676925291092e24	70.63403228983441	71.47812008828079	2.063855042476424	0.9967752756265451
0.014305032388986333	1.0188158638878433e-24	2.377661902652113e8	6.877676925291092e24	70.63403228983441	71.47812008828079	2.063855042476424	0.9967752756265451
0.014361424323741451	1.0372236338122752e-24	2.377661902652113e8	6.877676925291092e24	70.63403228983441	71.47812008828079	2.063855042476424	0.9967752756265451
0.014418038561405009	1.055873614317884e-24	2.377661902652113e8	6.877676925291092e24	70.63403228983441	71.47812008828079	2.063855042476424	0.9967752756265451
0.014474875978318398	1.0747681003789358e-24	2.377661902652113e8	6.877676925291092e24	70.63403228983441	71.47812008828079	2.063855042476424	0.9967752756265451
0.014531937454277461	1.093909406603553e-24	2.377661902652113e8	6.877676925291092e24	70.63403228983441	71.47812008828079	2.063855042476424	0.9967752756265451
0.01458922387254646	1.1132998673948655e-24	2.377661902652113e8	6.877676925291092e24	70.63403228983441	71.47812008828079	2.063855042476424	0.9967752756265451
0.014646736119871525	1.1329418371132576e-24	2.377661902652113e8	6.877676925291092e24	70.63403228983441	71.47812008828079	2.063855042476424	0.9967752756265451
0.014704475086494487	1.1528376902400503e-24	2.377661902652113e8	6.877676925291092e24	70.63403228983441	71.47812008828079	2.063855042476424	0.9967752756265451
0.014762441666166425	1.1729898215423575e-24	2.377661902652113e8	6.877676925291092e24	70.63403228983441	71.47812008828079	2.063855042476424	0.9967752756265451
0.01482063675616186	1.1934006462394974e-24	2.377661902652113e8	6.877676925291092e24	70.63403228983441	71.47812008828079	2.063855042476424	0.9967752756265451
0.014879061257292402	1.2140726001705176e-24	2.377661902652113e8	6.877676925291092e24	70.63403228983441	71.47812008828079	2.063855042476424	0.9967752756265451
0.014937716073920814	1.2350081399632025e-24	2.377661902652113e8	6.877676925291092e24	70.63403228983441	71.47812008828079	2.063855042476424	0.9967752756265451
0.014996602113974772	1.2562097432043072e-24	2.377661902652113e8	6.877676925291092e24	70.63403228983441	71.47812008828079	2.063855042476424	0.9967752756265451
0.015055720288961277	1.2776799086113745e-24	2.377661902652113e8	6.877676925291092e24	70.63403228983441	71.47812008828079	2.063855042476424	0.9967752756265451
0.01511507151398059	1.299421156205751e-24	2.377661902652113e8	6.877676925291092e24	70.63403228983441	71.47812008828079	2.063855042476424	0.9967752756265451
0.015174656707740207	1.3214360274869656e-24	2.377661902652113e8	6.877676925291092e24	70.63403228983441	71.47812008828079	2.063855042476424	0.9967752756265451
0.015234476792569443	1.3437270856087452e-24	2.377661902652113e8	6.877676925291092e24	70.63403228983441	71.47812008828079	2.063855042476424	0.9967752756265451
0.015294532694433486	1.3662969155561965e-24	2.377661902652113e8	6.877676925291092e24	70.63403228983441	71.47812008828079	2.063855042476424	0.9967752756265451
0.015354825342947829	1.3891481243245527e-24	2.377661902652113e8	6.877676925291092e24	70.63403228983441	71.47812008828079	2.063855042476424	0.9967752756265451
0.01541535567139241	1.41228334109922e-24	2.377661902652113e8	6.877676925291092e24	70.63403228983441	71.47812008828079	2.063855042476424	0.9967752756265451
0.015476124616726457	1.4357052174375114e-24	2.377661902652113e8	6.877676925291092e24	70.63403228983441	71.47812008828079	2.063855042476424	0.9967752756265451
0.015537133119602716	1.4594164274515955e-24	2.377661902652113e8	6.877676925291092e24	70.63403228983441	71.47812008828079	2.063855042476424	0.9967752756265451
0.015598382124382163	1.483419667993066e-24	2.377661902652113e8	6.877676925291092e24	70.63403228983441	71.47812008828079	2.063855042476424	0.9967752756265451
0.015659872579148332	1.5077176588388335e-24	2.377661902652113e8	6.877676925291092e24	70.63403228983441	71.47812008828079	2.063855042476424	0.9967752756265451
0.015721605435722406	1.5323131428787812e-24	2.377661902652113e8	6.877676925291092e24	70.63403228983441	71.47812008828079	2.063855042476424	0.9967752756265451
0.01578358164967768	1.5572088863046594e-24	2.377661902652113e8	6.877676925291092e24	70.63403228983441	71.47812008828079	2.063855042476424	0.9967752756265451
0.015845802180354484	1.5824076788006582e-24	2.377661902652113e8	6.877676925291092e24	70.63403228983441	71.47812008828079	2.063855042476424	0.9967752756265451
0.015908267990874775	1.6079123337353545e-24	2.377661902652113e8	6.877676925291092e24	70.63403228983441	71.47812008828079	2.063855042476424	0.9967752756265451
0.01597098004815743	1.633725688355458e-24	2.377661902652113e8	6.877676925291092e24	70.63403228983441	71.47812008828079	2.063855042476424	0.9967752756265451
0.016033939322932955	1.6598506039808565e-24	2.377661902652113e8	6.877676925291092e24	70.63403228983441	71.47812008828079	2.063855042476424	0.9967752756265451
0.016097146789758644	1.6862899662013817e-24	2.377661902652113e8	6.877676925291092e24	70.63403228983441	71.47812008828079	2.063855042476424	0.9967752756265451
0.016160603427033404	1.713046685075e-24	2.377661902652113e8	6.877676925291092e24	70.63403228983441	71.47812008828079	2.063855042476424	0.9967752756265451
0.016224310217013288	1.7401236953278587e-24	2.377661902652113e8	6.877676925291092e24	70.63403228983441	71.47812008828079	2.063855042476424	0.9967752756265451
0.016288268145826505	1.767523956555698e-24	2.377661902652113e8	6.877676925291092e24	70.63403228983441	71.47812008828079	2.063855042476424	0.9967752756265451
0.016352478203488483	1.7952504534268723e-24	2.377661902652113e8	6.877676925291092e24	70.63403228983441	71.47812008828079	2.063855042476424	0.9967752756265451
