r[m]	M[Msun]	rho[g/cm^3]	P[N/m^2]	n_e[pm^-3]	n_p[pm^-3]	muF_e[MeV]	B
0.009999999999999985	-5.87642909840496e-39	6.363446443743227e8	2.59318847592713e25	188.66589631515146	143.5385740570229	3.0275924076989598	0.995405875165652
0.010038931934612484	1.5878678273212998e-26	6.363446443743227e8	2.59318847592713e25	188.66589631515146	143.5385740570229	3.0275924076989598	0.995405875165652
0.010078015438778294	3.2193855574514343e-26	6.363446443743227e8	2.59318847592713e25	188.66589631515146	143.5385740570229	3.0275924076989598	0.995405875165652
0.010117251102586922	4.8827369892791904e-26	6.363446443743227e8	2.59318847592713e25	188.66589631515146	143.5385740570229	3.0275924076989598	0.995405875165652
0.01015663951842538	6.565822442412571e-26	6.363446443743227e8	2.59318847592713e25	188.66589631515146	143.5385740570229	3.0275924076989598	0.995405875165652
0.010196181280986786	8.256254112820719e-26	6.363446443743227e8	2.59318847592713e25	188.66589631515146	143.5385740570229	3.0275924076989598	0.995405875165652
0.010235876987279685	9.941351363010309e-26	6.363446443743227e8	2.59318847592713e25	188.66589631515146	143.5385740570229	3.0275924076989598	0.995405875165652
0.01027572723663672	1.1641965984328942e-25	6.363446443743227e8	2.59318847592713e25	188.66589631515146	143.5385740570229	3.0275924076989598	0.995405875165652
0.010315732630724026	1.3389834952853578e-25	6.363446443743227e8	2.59318847592713e25	188.66589631515146	143.5385740570229	3.0275924076989598	0.995405875165652
0.010355893773549965	1.5172190097700904e-25	6.363446443743227e8	2.59318847592713e25	188.66589631515146	143.5385740570229	3.0275924076989598	0.995405875165652
0.010396211271474592	1.6975744937260432e-25	6.363446443743227e8	2.59318847592713e25	188.66589631515146	143.5385740570229	3.0275924076989598	0.995405875165652
0.01043668573321847	1.878689666873865e-25	6.363446443743227e8	2.59318847592713e25	188.66589631515146	143.5385740570229	3.0275924076989598	0.995405875165652
0.0104773177698722	2.059172099768107e-25	6.363446443743227e8	2.59318847592713e25	188.66589631515146	143.5385740570229	3.0275924076989598	0.995405875165652
0.010518107994905306	2.241917386307003e-25	6.363446443743227e8	2.59318847592713e25	188.66589631515146	143.5385740570229	3.0275924076989598	0.995405875165652
0.010559057024175835	2.4304061769446353e-25	6.363446443743227e8	2.59318847592713e25	188.66589631515146	143.5385740570229	3.0275924076989598	0.995405875165652
0.010600165475939323	2.623952463660573e-25	6.363446443743227e8	2.59318847592713e25	188.66589631515146	143.5385740570229	3.0275924076989598	0.995405875165652
0.010641433970858462	2.821853153255935e-25	6.363446443743227e8	2.59318847592713e25	188.66589631515146	143.5385740570229	3.0275924076989598	0.995405875165652
0.010682863132012131	3.0233879062158365e-25	6.363446443743227e8	2.59318847592713e25	188.66589631515146	143.5385740570229	3.0275924076989598	0.995405875165652
0.010724453584905154	3.227818852370714e-25	6.363446443743227e8	2.59318847592713e25	188.66589631515146	143.5385740570229	3.0275924076989598	0.995405875165652
0.010766205957477385	3.4343903025332747e-25	6.363446443743227e8	2.59318847592713e25	188.66589631515146	143.5385740570229	3.0275924076989598	0.995405875165652
0.010808120880113509	3.642328456065179e-25	6.363446443743227e8	2.59318847592713e25	188.66589631515146	143.5385740570229	3.0275924076989598	0.995405875165652
0.01085019898565241	3.850841104314408e-25	6.363446443743227e8	2.59318847592713e25	188.66589631515146	143.5385740570229	3.0275924076989598	0.995405875165652
0.010892440909396613	4.059117329871879e-25	6.363446443743227e8	2.59318847592713e25	188.66589631515146	143.5385740570229	3.0275924076989598	0.995405875165652
0.010934847289122173	4.2663272015944e-25	6.363446443743227e8	2.59318847592713e25	188.66589631515146	143.5385740570229	3.0275924076989598	0.995405875165652
0.010977418765087952	4.472950351037874e-25	6.363446443743227e8	2.59318847592713e25	188.66589631515146	143.5385740570229	3.0275924076989598	0.995405875165652
0.01102015598004564	4.685385848947603e-25	6.363446443743227e8	2.59318847592713e25	188.66589631515146	143.5385740570229	3.0275924076989598	0.995405875165652
0.011063059579249109	4.9039092040732105e-25	6.363446443743227e8	2.59318847592713e25	188.66589631515146	143.5385740570229	3.0275924076989598	0.995405875165652
0.011106130210464504	5.127686823680577e-25	6.363446443743227e8	2.59318847592713e25	188.66589631515146	143.5385740570229	3.0275924076989598	0.995405875165652
0.011149368523979677	5.355864648387996e-25	6.363446443743227e8	2.59318847592713e25	188.66589631515146	143.5385740570229	3.0275924076989598	0.995405875165652
0.011192775172614348	5.587567814632845e-25	6.363446443743227e8	2.59318847592713e25	188.66589631515146	143.5385740570229	3.0275924076989598	0.995405875165652
0.011236350811729611	5.821900312360888e-25	6.363446443743227e8	2.59318847592713e25	188.66589631515146	143.5385740570229	3.0275924076989598	0.995405875165652
0.011280096099238192	6.057944637882848e-25	6.363446443743227e8	2.59318847592713e25	188.66589631515146	143.5385740570229	3.0275924076989598	0.995405875165652
0.01132401169561402	6.294761441827542e-25	6.363446443743227e8	2.59318847592713e25	188.66589631515146	143.5385740570229	3.0275924076989598	0.995405875165652
0.01136809826390255	6.53138917213485e-25	6.363446443743227e8	2.59318847592713e25	188.66589631515146	143.5385740570229	3.0275924076989598	0.995405875165652
0.011412356469730421	6.766843712016177e-25	6.363446443743227e8	2.59318847592713e25	188.66589631515146	143.5385740570229	3.0275924076989598	0.995405875165652
0.01145678698131588	7.000996185995732e-25	6.363446443743227e8	2.59318847592713e25	188.66589631515146	143.5385740570229	3.0275924076989598	0.995405875165652
0.011501390469478472	7.237683541141844e-25	6.363446443743227e8	2.59318847592713e25	188.66589631515146	143.5385740570229	3.0275924076989598	0.995405875165652
0.011546167607649574	7.477516104534776e-25	6.363446443743227e8	2.59318847592713e25	188.66589631515146	143.5385740570229	3.0275924076989598	0.995405875165652
0.011591119071882173	7.720523469672335e-25	6.363446443743227e8	2.59318847592713e25	188.66589631515146	143.5385740570229	3.0275924076989598	0.995405875165652
0.011636245540861396	7.966735480612111e-25	6.363446443743227e8	2.59318847592713e25	188.66589631515146	143.5385740570229	3.0275924076989598	0.995405875165652
0.011681547695914623	8.2161822340020925e-25	6.363446443743227e8	2.59318847592713e25	188.66589631515146	143.5385740570229	3.0275924076989598	0.995405875165652
0.011727026221021638	8.468894081127492e-25	6.363446443743227e8	2.59318847592713e25	188.66589631515146	143.5385740570229	3.0275924076989598	0.995405875165652
0.011772681802825277	8.724901629976282e-25	6.363446443743227e8	2.59318847592713e25	188.66589631515146	143.5385740570229	3.0275924076989598	0.995405875165652
0.01181851513064141	8.98423574731726e-25	6.363446443743227e8	2.59318847592713e25	188.66589631515146	143.5385740570229	3.0275924076989598	0.995405875165652
0.011864526896469758	9.246927560799059e-25	6.363446443743227e8	2.59318847592713e25	188.66589631515146	143.5385740570229	3.0275924076989598	0.995405875165652
0.01191071779500392	9.51300846106127e-25	6.363446443743227e8	2.59318847592713e25	188.66589631515146	143.5385740570229	3.0275924076989598	0.995405875165652
0.011957088523642271	9.782510103866801e-25	6.363446443743227e8	2.59318847592713e25	188.66589631515146	143.5385740570229	3.0275924076989598	0.995405875165652
0.012003639782498103	1.005546441224687e-24	6.363446443743227e8	2.59318847592713e25	188.66589631515146	143.5385740570229	3.0275924076989598	0.995405875165652
0.012050372274410574	1.0331903578667323e-24	6.363446443743227e8	2.59318847592713e25	188.66589631515146	143.5385740570229	3.0275924076989598	0.995405875165652
0.012097286704954937	1.0611860067207749e-24	6.363446443743227e8	2.59318847592713e25	188.66589631515146	143.5385740570229	3.0275924076989598	0.995405875165652
0.012144383782453584	1.0895366615762506e-24	6.363446443743227e8	2.59318847592713e25	188.66589631515146	143.5385740570229	3.0275924076989598	0.995405875165652
0.012191664217986342	1.1182456238254461e-24	6.363446443743227e8	2.59318847592713e25	188.66589631515146	143.5385740570229	3.0275924076989598	0.995405875165652
0.012239128725401614	1.1473162226871186e-24	6.363446443743227e8	2.59318847592713e25	188.66589631515146	143.5385740570229	3.0275924076989598	0.995405875165652
0.012286778021326744	1.1767518154313991e-24	6.363446443743227e8	2.59318847592713e25	188.66589631515146	143.5385740570229	3.0275924076989598	0.995405875165652
0.012334612825179255	1.206555787606975e-24	6.363446443743227e8	2.59318847592713e25	188.66589631515146	143.5385740570229	3.0275924076989598	0.995405875165652
0.012382633859177292	1.2367315532695787e-24	6.363446443743227e8	2.59318847592713e25	188.66589631515146	143.5385740570229	3.0275924076989598	0.995405875165652
0.012430841848350947	1.267282555212803e-24	6.363446443743227e8	2.59318847592713e25	188.66589631515146	143.5385740570229	3.0275924076989598	0.995405875165652
0.012479237520552779	1.298212265200217e-24	6.363446443743227e8	2.59318847592713e25	188.66589631515146	143.5385740570229	3.0275924076989598	0.995405875165652
0.01252782160646918	1.3295241841998324e-24	6.363446443743227e8	2.59318847592713e25	188.66589631515146	143.5385740570229	3.0275924076989598	0.995405875165652
0.012576594839631245	1.3612218426200956e-24	6.363446443743227e8	2.59318847592713e25	188.66589631515146	143.5385740570229	3.0275924076989598	0.995405875165652
0.012625557956425686	1.3933088005477426e-24	6.363446443743227e8	2.59318847592713e25	188.66589631515146	143.5385740570229	3.0275924076989598	0.995405875165652
0.012674711696106329	1.4257886479879013e-24	6.363446443743227e8	2.59318847592713e25	188.66589631515146	143.5385740570229	3.0275924076989598	0.995405875165652
0.012724056800804838	1.4586650051055554e-24	6.363446443743227e8	2.59318847592713e25	188.66589631515146	143.5385740570229	3.0275924076989598	0.995405875165652
0.012773594015542358	1.4919415224695146e-24	6.363446443743227e8	2.59318847592713e25	188.66589631515146	143.5385740570229	3.0275924076989598	0.995405875165652
0.01282332408824033	1.5256218812977283e-24	6.363446443743227e8	2.59318847592713e25	188.66589631515146	143.5385740570229	3.0275924076989598	0.995405875165652
0.01287324776973221	1.5597097937051314e-24	6.363446443743227e8	2.59318847592713e25	188.66589631515146	143.5385740570229	3.0275924076989598	0.995405875165652
0.012923365813774384	1.594209002952883e-24	6.363446443743227e8	2.59318847592713e25	188.66589631515146	143.5385740570229	3.0275924076989598	0.995405875165652
0.012973678977057965	1.6291232837001465e-24	6.363446443743227e8	2.59318847592713e25	188.66589631515146	143.5385740570229	3.0275924076989598	0.995405875165652
0.013024188019219802	1.664456442257303e-24	6.363446443743227e8	2.59318847592713e25	188.66589631515146	143.5385740570229	3.0275924076989598	0.995405875165652
0.013074893702854373	1.7002123168417496e-24	6.363446443743227e8	2.59318847592713e25	188.66589631515146	143.5385740570229	3.0275924076989598	0.995405875165652
0.013125796793524864	1.7363947778351348e-24	6.363446443743227e8	2.59318847592713e25	188.66589631515146	143.5385740570229	3.0275924076989598	0.995405875165652
0.013176898059775167	1.7730077280432363e-24	6.363446443743227e8	2.59318847592713e25	188.66589631515146	143.5385740570229	3.0275924076989598	0.995405875165652
0.013228198273141041	1.8100551029572875e-24	6.363446443743227e8	2.59318847592713e25	188.66589631515146	143.5385740570229	3.0275924076989598	0.995405875165652
0.013279698208162206	1.847540871018006e-24	6.363446443743227e8	2.59318847592713e25	188.66589631515146	143.5385740570229	3.0275924076989598	0.995405875165652
0.013331398642393598	1.8854690338810733e-24	6.363446443743227e8	2.59318847592713e25	188.66589631515146	143.5385740570229	3.0275924076989598	0.995405875165652
0.013383300356417535	1.923843626685361e-24	6.363446443743227e8	2.59318847592713e25	188.66589631515146	143.5385740570229	3.0275924076989598	0.995405875165652
0.013435404133855085	1.9626687183226526e-24	6.363446443743227e8	2.59318847592713e25	188.66589631515146	143.5385740570229	3.0275924076989598	0.995405875165652
0.013487710761378262	2.0019484117100905e-24	6.363446443743227e8	2.59318847592713e25	188.66589631515146	143.5385740570229	3.0275924076989598	0.995405875165652
0.013540221028721747	2.041686844064386e-24	6.363446443743227e8	2.59318847592713e25	188.66589631515146	143.5385740570229	3.0275924076989598	0.995405875165652
0.013592935728694645	2.081888187178213e-24	6.363446443743227e8	2.59318847592713e25	188.66589631515146	143.5385740570229	3.0275924076989598	0.995405875165652
0.013645855657192847	2.1225566476991918e-24	6.363446443743227e8	2.59318847592713e25	188.66589631515146	143.5385740570229	3.0275924076989598	0.995405875165652
0.01369898161321059	2.1636964674104515e-24	6.363446443743227e8	2.59318847592713e25	188.66589631515146	143.5385740570229	3.0275924076989598	0.995405875165652
0.013752314398852982	2.2053119235141237e-24	6.363446443743227e8	2.59318847592713e25	188.66589631515146	143.5385740570229	3.0275924076989598	0.995405875165652
0.013805854819347653	2.247407328916363e-24	6.363446443743227e8	2.59318847592713e25	188.66589631515146	143.5385740570229	3.0275924076989598	0.995405875165652
0.013859603683057359	2.2899870325153313e-24	6.363446443743227e8	2.59318847592713e25	188.66589631515146	143.5385740570229	3.0275924076989598	0.995405875165652
0.013913561801491756	2.3330554194907878e-24	6.363446443743227e8	2.59318847592713e25	188.66589631515146	143.5385740570229	3.0275924076989598	0.995405875165652
0.013967729989320077	2.3766169115966296e-24	6.363446443743227e8	2.59318847592713e25	188.66589631515146	143.5385740570229	3.0275924076989598	0.995405875165652
0.014022109064383005	2.420675967455099e-24	6.363446443743227e8	2.59318847592713e25	188.66589631515146	143.5385740570229	3.0275924076989598	0.995405875165652
0.014076699847705453	2.4652370828539796e-24	6.363446443743227e8	2.59318847592713e25	188.66589631515146	143.5385740570229	3.0275924076989598	0.995405875165652
0.014131503163508518	2.5103047910454726e-24	6.363446443743227e8	2.59318847592713e25	188.66589631515146	143.5385740570229	3.0275924076989598	0.995405875165652
0.01418651983922238	2.555883663048146e-24	6.363446443743227e8	2.59318847592713e25	188.66589631515146	143.5385740570229	3.0275924076989598	0.995405875165652
0.014241750705498334	2.601978307950532e-24	6.363446443743227e8	2.59318847592713e25	188.66589631515146	143.5385740570229	3.0275924076989598	0.995405875165652
0.014297196596221794	2.648593373217906e-24	6.363446443743227e8	2.59318847592713e25	188.66589631515146	143.5385740570229	3.0275924076989598	0.995405875165652
0.01435285834852441	2.695733545000694e-24	6.363446443743227e8	2.59318847592713e25	188.66589631515146	143.5385740570229	3.0275924076989598	0.995405875165652
0.014408736802797192	2.7434035484461393e-24	6.363446443743227e8	2.59318847592713e25	188.66589631515146	143.5385740570229	3.0275924076989598	0.995405875165652
0.014464832802702714	2.791608148011624e-24	6.363446443743227e8	2.59318847592713e25	188.66589631515146	143.5385740570229	3.0275924076989598	0.995405875165652
0.014521147195188272	2.840352147781223e-24	6.363446443743227e8	2.59318847592713e25	188.66589631515146	143.5385740570229	3.0275924076989598	0.995405875165652
0.014577680830498487	2.8896403917842646e-24	6.363446443743227e8	2.59318847592713e25	188.66589631515146	143.5385740570229	3.0275924076989598	0.995405875165652
0.014634434562187973	2.9394777643164195e-24	6.363446443743227e8	2.59318847592713e25	188.66589631515146	143.5385740570229	3.0275924076989598	0.995405875165652
0.014691409247134633	2.989869190263831e-24	6.363446443743227e8	2.59318847592713e25	188.66589631515146	143.5385740570229	3.0275924076989598	0.995405875165652
0.014748605745552125	3.0408196354290483e-24	6.363446443743227e8	2.59318847592713e25	188.66589631515146	143.5385740570229	3.0275924076989598	0.995405875165652
0.014806024921003323	3.09233410686037e-24	6.363446443743227e8	2.59318847592713e25	188.66589631515146	143.5385740570229	3.0275924076989598	0.995405875165652
0.01486366764041288	3.144417653182946e-24	6.363446443743227e8	2.59318847592713e25	188.66589631515146	143.5385740570229	3.0275924076989598	0.995405875165652
0.01492153477408079	3.1970753649333652e-24	6.363446443743227e8	2.59318847592713e25	188.66589631515146	143.5385740570229	3.0275924076989598	0.995405875165652
0.014979627195695054	3.2503123748960193e-24	6.363446443743227e8	2.59318847592713e25	188.66589631515146	143.5385740570229	3.0275924076989598	0.995405875165652
0.015037945782345359	3.3041338584430057e-24	6.363446443743227e8	2.59318847592713e25	188.66589631515146	143.5385740570229	3.0275924076989598	0.995405875165652
0.015096491414535817	3.3585450338758384e-24	6.363446443743227e8	2.59318847592713e25	188.66589631515146	143.5385740570229	3.0275924076989598	0.995405875165652
0.015155264976198768	3.413551162770759e-24	6.363446443743227e8	2.59318847592713e25	188.66589631515146	143.5385740570229	3.0275924076989598	0.995405875165652
0.015214267354707618	3.469157550325856e-24	6.363446443743227e8	2.59318847592713e25	188.66589631515146	143.5385740570229	3.0275924076989598	0.995405875165652
0.015273499440890737	3.525369545711884e-24	6.363446443743227e8	2.59318847592713e25	188.66589631515146	143.5385740570229	3.0275924076989598	0.995405875165652
0.015332962129044418	3.5821925424249015e-24	6.363446443743227e8	2.59318847592713e25	188.66589631515146	143.5385740570229	3.0275924076989598	0.995405875165652
0.015392656316946871	3.639631978642638e-24	6.363446443743227e8	2.59318847592713e25	188.66589631515146	143.5385740570229	3.0275924076989598	0.995405875165652
0.015452582905871277	3.697693337582759e-24	6.363446443743227e8	2.59318847592713e25	188.66589631515146	143.5385740570229	3.0275924076989598	0.995405875165652
0.015512742800599902	3.756382147864892e-24	6.363446443743227e8	2.59318847592713e25	188.66589631515146	143.5385740570229	3.0275924076989598	0.995405875165652
0.01557313690943725	3.815703983874558e-24	6.363446443743227e8	2.59318847592713e25	188.66589631515146	143.5385740570229	3.0275924076989598	0.995405875165652
0.01563376614422429	3.875664466130986e-24	6.363446443743227e8	2.59318847592713e25	188.66589631515146	143.5385740570229	3.0275924076989598	0.995405875165652
0.01569463142035169	3.936269261656791e-24	6.363446443743227e8	2.59318847592713e25	188.66589631515146	143.5385740570229	3.0275924076989598	0.995405875165652
0.015755733656774136	3.997524084351589e-24	6.363446443743227e8	2.59318847592713e25	188.66589631515146	143.5385740570229	3.0275924076989598	0.995405875165652
0.015817073776023947	4.059434695367858e-24	6.363446443743227e8	2.59318847592713e25	188.66589631515146	143.5385740570229	3.0275924076989598	0.995405875165652
0.015878652704224873	4.122006903489839e-24	6.363446443743227e8	2.59318847592713e25	188.66589631515146	143.5385740570229	3.0275924076989598	0.995405875165652
0.015940471371106487	4.185246565516024e-24	6.363446443743227e8	2.59318847592713e25	188.66589631515146	143.5385740570229	3.0275924076989598	0.995405875165652
0.016002530710017723	4.2491595866437294e-24	6.363446443743227e8	2.59318847592713e25	188.66589631515146	143.5385740570229	3.0275924076989598	0.995405875165652
0.01606483165794148	4.3137519208577434e-24	6.363446443743227e8	2.59318847592713e25	188.66589631515146	143.5385740570229	3.0275924076989598	0.995405875165652
0.016127375155508262	4.379029571320996e-24	6.363446443743227e8	2.59318847592713e25	188.66589631515146	143.5385740570229	3.0275924076989598	0.995405875165652
0.01619016214701088	4.444998590769379e-24	6.363446443743227e8	2.59318847592713e25	188.66589631515146	143.5385740570229	3.0275924076989598	0.995405875165652
0.0162531935804182	4.511704400582034e-24	6.363446443743227e8	2.59318847592713e25	188.66589631515146	143.5385740570229	3.0275924076989598	0.995405875165652
