r[m]	M[Msun]	rho[g/cm^3]	P[N/m^2]	n_e[pm^-3]	n_p[pm^-3]	muF_e[MeV]	B
0.010000000000000007	2.0002719185074092e-40	3.457258388194051e7	4.850629506751978e23	10.269399840256792	10.397932327527188	0.9109797169420475	0.9984907071520112
0.010040294626263024	8.941603764908517e-28	3.457258388194051e7	4.850629506751978e23	10.269399840256792	10.397932327527188	0.9109797169420475	0.9984907071520112
0.010080751618216649	1.8179100650899836e-27	3.457258388194051e7	4.850629506751978e23	10.269399840256792	10.397932327527188	0.9109797169420475	0.9984907071520112
0.010121371630107281	2.768222377496456e-27	3.457258388194051e7	4.850629506751978e23	10.269399840256792	10.397932327527188	0.9109797169420475	0.9984907071520112
0.010162155318817711	3.741992296273595e-27	3.457258388194051e7	4.850629506751978e23	10.269399840256792	10.397932327527188	0.9109797169420475	0.9984907071520112
0.010203103343877598	4.736035130845439e-27	3.457258388194051e7	4.850629506751978e23	10.269399840256792	10.397932327527188	0.9109797169420475	0.9984907071520112
0.010244216367474048	5.747085153774659e-27	3.457258388194051e7	4.850629506751978e23	10.269399840256792	10.397932327527188	0.9109797169420475	0.9984907071520112
0.01028549505446253	6.771794217059664e-27	3.457258388194051e7	4.850629506751978e23	10.269399840256792	10.397932327527188	0.9109797169420475	0.9984907071520112
0.0103269400723775	7.806730348165145e-27	3.457258388194051e7	4.850629506751978e23	10.269399840256792	10.397932327527188	0.9109797169420475	0.9984907071520112
0.010368552091443241	8.848376325522955e-27	3.457258388194051e7	4.850629506751978e23	10.269399840256792	10.397932327527188	0.9109797169420475	0.9984907071520112
0.010410331784584576	9.893128233216818e-27	3.457258388194051e7	4.850629506751978e23	10.269399840256792	10.397932327527188	0.9109797169420475	0.9984907071520112
0.01045227982743796	1.0937293994581312e-26	3.457258388194051e7	4.850629506751978e23	10.269399840256792	10.397932327527188	0.9109797169420475	0.9984907071520112
0.01049439689836231	1.1977091884413577e-26	3.457258388194051e7	4.850629506751978e23	10.269399840256792	10.397932327527188	0.9109797169420475	0.9984907071520112
0.010536683678449838	1.3008731035840373e-26	3.457258388194051e7	4.850629506751978e23	10.269399840256792	10.397932327527188	0.9109797169420475	0.9984907071520112
0.010579140851537314	1.405600872957651e-26	3.457258388194051e7	4.850629506751978e23	10.269399840256792	10.397932327527188	0.9109797169420475	0.9984907071520112
0.010621769104217006	1.5137416731047273e-26	3.457258388194051e7	4.850629506751978e23	10.269399840256792	10.397932327527188	0.9109797169420475	0.9984907071520112
0.010664569125847654	1.624920425708058e-26	3.457258388194051e7	4.850629506751978e23	10.269399840256792	10.397932327527188	0.9109797169420475	0.9984907071520112
0.010707541608565869	1.7387523887583616e-26	3.457258388194051e7	4.850629506751978e23	10.269399840256792	10.397932327527188	0.9109797169420475	0.9984907071520112
0.010750687247297153	1.8548429909459893e-26	3.457258388194051e7	4.850629506751978e23	10.269399840256792	10.397932327527188	0.9109797169420475	0.9984907071520112
0.01079400673976724	1.972787663624779e-26	3.457258388194051e7	4.850629506751978e23	10.269399840256792	10.397932327527188	0.9109797169420475	0.9984907071520112
0.010837500786513181	2.0921716703135916e-26	3.457258388194051e7	4.850629506751978e23	10.269399840256792	10.397932327527188	0.9109797169420475	0.9984907071520112
0.01088117009089495	2.2125699337041755e-26	3.457258388194051e7	4.850629506751978e23	10.269399840256792	10.397932327527188	0.9109797169420475	0.9984907071520112
0.010925015359106687	2.3335468601391429e-26	3.457258388194051e7	4.850629506751978e23	10.269399840256792	10.397932327527188	0.9109797169420475	0.9984907071520112
0.01096903730018798	2.4546561615269312e-26	3.457258388194051e7	4.850629506751978e23	10.269399840256792	10.397932327527188	0.9109797169420475	0.9984907071520112
0.011013236626035596	2.5754406746600452e-26	3.457258388194051e7	4.850629506751978e23	10.269399840256792	10.397932327527188	0.9109797169420475	0.9984907071520112
0.011057614051414867	2.695432177899341e-26	3.457258388194051e7	4.850629506751978e23	10.269399840256792	10.397932327527188	0.9109797169420475	0.9984907071520112
0.011102170293971113	2.8158497171862835e-26	3.457258388194051e7	4.850629506751978e23	10.269399840256792	10.397932327527188	0.9109797169420475	0.9984907071520112
0.011146906074241505	2.940433605653774e-26	3.457258388194051e7	4.850629506751978e23	10.269399840256792	10.397932327527188	0.9109797169420475	0.9984907071520112
0.0111918221156666	3.069152067527106e-26	3.457258388194051e7	4.850629506751978e23	10.269399840256792	10.397932327527188	0.9109797169420475	0.9984907071520112
0.011236919144601896	3.20179162037862e-26	3.457258388194051e7	4.850629506751978e23	10.269399840256792	10.397932327527188	0.9109797169420475	0.9984907071520112
0.011282197890329842	3.3381329138195623e-26	3.457258388194051e7	4.850629506751978e23	10.269399840256792	10.397932327527188	0.9109797169420475	0.9984907071520112
0.011327659085071466	3.477950627192927e-26	3.457258388194051e7	4.850629506751978e23	10.269399840256792	10.397932327527188	0.9109797169420475	0.9984907071520112
0.011373303463998294	3.6210133657556497e-26	3.457258388194051e7	4.850629506751978e23	10.269399840256792	10.397932327527188	0.9109797169420475	0.9984907071520112
0.011419131765244062	3.7670835553280235e-26	3.457258388194051e7	4.850629506751978e23	10.269399840256792	10.397932327527188	0.9109797169420475	0.9984907071520112
0.011465144729916927	3.915917335391718e-26	3.457258388194051e7	4.850629506751978e23	10.269399840256792	10.397932327527188	0.9109797169420475	0.9984907071520112
0.011511343102111314	4.0672644506125224e-26	3.457258388194051e7	4.850629506751978e23	10.269399840256792	10.397932327527188	0.9109797169420475	0.9984907071520112
0.011557727628919807	4.220868140767648e-26	3.457258388194051e7	4.850629506751978e23	10.269399840256792	10.397932327527188	0.9109797169420475	0.9984907071520112
0.011604299060445513	4.376465029057388e-26	3.457258388194051e7	4.850629506751978e23	10.269399840256792	10.397932327527188	0.9109797169420475	0.9984907071520112
0.011651058149814054	4.533785008776296e-26	3.457258388194051e7	4.850629506751978e23	10.269399840256792	10.397932327527188	0.9109797169420475	0.9984907071520112
0.011698005653185597	4.6925511283230666e-26	3.457258388194051e7	4.850629506751978e23	10.269399840256792	10.397932327527188	0.9109797169420475	0.9984907071520112
0.011745142329767373	4.8524794745279897e-26	3.457258388194051e7	4.850629506751978e23	10.269399840256792	10.397932327527188	0.9109797169420475	0.9984907071520112
0.011792468941825765	5.013279054272094e-26	3.457258388194051e7	4.850629506751978e23	10.269399840256792	10.397932327527188	0.9109797169420475	0.9984907071520112
0.01183998625469872	5.174651674377405e-26	3.457258388194051e7	4.850629506751978e23	10.269399840256792	10.397932327527188	0.9109797169420475	0.9984907071520112
0.011887695036807956	5.33629181974305e-26	3.457258388194051e7	4.850629506751978e23	10.269399840256792	10.397932327527188	0.9109797169420475	0.9984907071520112
0.011935596059671646	5.497886529705765e-26	3.457258388194051e7	4.850629506751978e23	10.269399840256792	10.397932327527188	0.9109797169420475	0.9984907071520112
0.011983690097916775	5.659115272598073e-26	3.457258388194051e7	4.850629506751978e23	10.269399840256792	10.397932327527188	0.9109797169420475	0.9984907071520112
0.012031977929291511	5.819649818480893e-26	3.457258388194051e7	4.850629506751978e23	10.269399840256792	10.397932327527188	0.9109797169420475	0.9984907071520112
0.012080460334678078	5.979154110027539e-26	3.457258388194051e7	4.850629506751978e23	10.269399840256792	10.397932327527188	0.9109797169420475	0.9984907071520112
0.012129138098105232	6.137284131531097e-26	3.457258388194051e7	4.850629506751978e23	10.269399840256792	10.397932327527188	0.9109797169420475	0.9984907071520112
0.012178012006760799	6.296396025063489e-26	3.457258388194051e7	4.850629506751978e23	10.269399840256792	10.397932327527188	0.9109797169420475	0.9984907071520112
0.012227082851004692	6.461062553474771e-26	3.457258388194051e7	4.850629506751978e23	10.269399840256792	10.397932327527188	0.9109797169420475	0.9984907071520112
0.012276351424381562	6.631077926233914e-26	3.457258388194051e7	4.850629506751978e23	10.269399840256792	10.397932327527188	0.9109797169420475	0.9984907071520112
0.012325818523633451	6.806127539507179e-26	3.457258388194051e7	4.850629506751978e23	10.269399840256792	10.397932327527188	0.9109797169420475	0.9984907071520112
0.012375484948713008	6.985888268059765e-26	3.457258388194051e7	4.850629506751978e23	10.269399840256792	10.397932327527188	0.9109797169420475	0.9984907071520112
0.012425351502796207	7.170028317250426e-26	3.457258388194051e7	4.850629506751978e23	10.269399840256792	10.397932327527188	0.9109797169420475	0.9984907071520112
0.012475418992295435	7.358207072844367e-26	3.457258388194051e7	4.850629506751978e23	10.269399840256792	10.397932327527188	0.9109797169420475	0.9984907071520112
0.012525688226872344	7.550074948612311e-26	3.457258388194051e7	4.850629506751978e23	10.269399840256792	10.397932327527188	0.9109797169420475	0.9984907071520112
0.012576160019451233	7.745273231688643e-26	3.457258388194051e7	4.850629506751978e23	10.269399840256792	10.397932327527188	0.9109797169420475	0.9984907071520112
0.012626835186232054	7.943433925654676e-26	3.457258388194051e7	4.850629506751978e23	10.269399840256792	10.397932327527188	0.9109797169420475	0.9984907071520112
0.012677714546703444	8.14417959131758e-26	3.457258388194051e7	4.850629506751978e23	10.269399840256792	10.397932327527188	0.9109797169420475	0.9984907071520112
0.012728798923656307	8.347123185155776e-26	3.457258388194051e7	4.850629506751978e23	10.269399840256792	10.397932327527188	0.9109797169420475	0.9984907071520112
0.01278008914319694	8.551867895395185e-26	3.457258388194051e7	4.850629506751978e23	10.269399840256792	10.397932327527188	0.9109797169420475	0.9984907071520112
0.012831586034760256	8.758006975686293e-26	3.457258388194051e7	4.850629506751978e23	10.269399840256792	10.397932327527188	0.9109797169420475	0.9984907071520112
0.012883290431123497	8.965123576351114e-26	3.457258388194051e7	4.850629506751978e23	10.269399840256792	10.397932327527188	0.9109797169420475	0.9984907071520112
0.0129352031684195	9.172790573163365e-26	3.457258388194051e7	4.850629506751978e23	10.269399840256792	10.397932327527188	0.9109797169420475	0.9984907071520112
0.012987325086150317	9.380570393631593e-26	3.457258388194051e7	4.850629506751978e23	10.269399840256792	10.397932327527188	0.9109797169420475	0.9984907071520112
0.013039657027200589	9.588014840749089e-26	3.457258388194051e7	4.850629506751978e23	10.269399840256792	10.397932327527188	0.9109797169420475	0.9984907071520112
0.013092199837851485	9.794664914179581e-26	3.457258388194051e7	4.850629506751978e23	10.269399840256792	10.397932327527188	0.9109797169420475	0.9984907071520112
0.013144954367794233	1.0000050628840021e-25	3.457258388194051e7	4.850629506751978e23	10.269399840256792	10.397932327527188	0.9109797169420475	0.9984907071520112
0.013197921470143703	1.0203690830847256e-25	3.457258388194051e7	4.850629506751978e23	10.269399840256792	10.397932327527188	0.9109797169420475	0.9984907071520112
0.013251102001452509	1.040713226396773e-25	3.457258388194051e7	4.850629506751978e23	10.269399840256792	10.397932327527188	0.9109797169420475	0.9984907071520112
0.013304496821724729	1.0613643320896309e-25	3.457258388194051e7	4.850629506751978e23	10.269399840256792	10.397932327527188	0.9109797169420475	0.9984907071520112
0.013358106794429616	1.0823310608742685e-25	3.457258388194051e7	4.850629506751978e23	10.269399840256792	10.397932327527188	0.9109797169420475	0.9984907071520112
0.013411932786515918	1.1036165612924083e-25	3.457258388194051e7	4.850629506751978e23	10.269399840256792	10.397932327527188	0.9109797169420475	0.9984907071520112
0.013465975668425651	1.1252240097277322e-25	3.457258388194051e7	4.850629506751978e23	10.269399840256792	10.397932327527188	0.9109797169420475	0.9984907071520112
0.013520236314108317	1.1471566106405131e-25	3.457258388194051e7	4.850629506751978e23	10.269399840256792	10.397932327527188	0.9109797169420475	0.9984907071520112
0.013574715601034782	1.1694175968040188e-25	3.457258388194051e7	4.850629506751978e23	10.269399840256792	10.397932327527188	0.9109797169420475	0.9984907071520112
0.013629414410211827	1.1920102295430941e-25	3.457258388194051e7	4.850629506751978e23	10.269399840256792	10.397932327527188	0.9109797169420475	0.9984907071520112
0.013684333626196208	1.2149377989745138e-25	3.457258388194051e7	4.850629506751978e23	10.269399840256792	10.397932327527188	0.9109797169420475	0.9984907071520112
0.013739474137108808	1.238203624249304e-25	3.457258388194051e7	4.850629506751978e23	10.269399840256792	10.397932327527188	0.9109797169420475	0.9984907071520112
0.013794836834649325	1.2618110537972864e-25	3.457258388194051e7	4.850629506751978e23	10.269399840256792	10.397932327527188	0.9109797169420475	0.9984907071520112
0.013850422614110531	1.2857634655734056e-25	3.457258388194051e7	4.850629506751978e23	10.269399840256792	10.397932327527188	0.9109797169420475	0.9984907071520112
0.013906232374392574	1.3100642673060976e-25	3.457258388194051e7	4.850629506751978e23	10.269399840256792	10.397932327527188	0.9109797169420475	0.9984907071520112
0.013962267018017853	1.3347168967479179e-25	3.457258388194051e7	4.850629506751978e23	10.269399840256792	10.397932327527188	0.9109797169420475	0.9984907071520112
0.014018527451145457	1.3597248219280177e-25	3.457258388194051e7	4.850629506751978e23	10.269399840256792	10.397932327527188	0.9109797169420475	0.9984907071520112
0.014075014583585631	1.3850915414066988e-25	3.457258388194051e7	4.850629506751978e23	10.269399840256792	10.397932327527188	0.9109797169420475	0.9984907071520112
0.01413172932881484	1.410820584532281e-25	3.457258388194051e7	4.850629506751978e23	10.269399840256792	10.397932327527188	0.9109797169420475	0.9984907071520112
0.01418867260399031	1.436915511699843e-25	3.457258388194051e7	4.850629506751978e23	10.269399840256792	10.397932327527188	0.9109797169420475	0.9984907071520112
0.014245845329964979	1.463379914612249e-25	3.457258388194051e7	4.850629506751978e23	10.269399840256792	10.397932327527188	0.9109797169420475	0.9984907071520112
0.014303248431302146	1.4902174165431538e-25	3.457258388194051e7	4.850629506751978e23	10.269399840256792	10.397932327527188	0.9109797169420475	0.9984907071520112
0.014360882836290787	1.5174316726024476e-25	3.457258388194051e7	4.850629506751978e23	10.269399840256792	10.397932327527188	0.9109797169420475	0.9984907071520112
0.014418749476960376	1.5450263700036534e-25	3.457258388194051e7	4.850629506751978e23	10.269399840256792	10.397932327527188	0.9109797169420475	0.9984907071520112
0.014476849289095792	1.5730052283335018e-25	3.457258388194051e7	4.850629506751978e23	10.269399840256792	10.397932327527188	0.9109797169420475	0.9984907071520112
0.014535183212252807	1.6013719998239997e-25	3.457258388194051e7	4.850629506751978e23	10.269399840256792	10.397932327527188	0.9109797169420475	0.9984907071520112
0.014593752189773088	1.6301304696264646e-25	3.457258388194051e7	4.850629506751978e23	10.269399840256792	10.397932327527188	0.9109797169420475	0.9984907071520112
0.014652557168799285	1.6592844560878276e-25	3.457258388194051e7	4.850629506751978e23	10.269399840256792	10.397932327527188	0.9109797169420475	0.9984907071520112
0.01471159910029071	1.6888378110294625e-25	3.457258388194051e7	4.850629506751978e23	10.269399840256792	10.397932327527188	0.9109797169420475	0.9984907071520112
0.014770878939038523	1.7187944200280485e-25	3.457258388194051e7	4.850629506751978e23	10.269399840256792	10.397932327527188	0.9109797169420475	0.9984907071520112
0.014830397643681008	1.7491582026987532e-25	3.457258388194051e7	4.850629506751978e23	10.269399840256792	10.397932327527188	0.9109797169420475	0.9984907071520112
0.014890156176719412	1.7799331129809838e-25	3.457258388194051e7	4.850629506751978e23	10.269399840256792	10.397932327527188	0.9109797169420475	0.9984907071520112
0.014950155504533297	1.811123139426234e-25	3.457258388194051e7	4.850629506751978e23	10.269399840256792	10.397932327527188	0.9109797169420475	0.9984907071520112
0.015010396597396274	1.842732305488442e-25	3.457258388194051e7	4.850629506751978e23	10.269399840256792	10.397932327527188	0.9109797169420475	0.9984907071520112
0.015070880429491446	1.8747646698165618e-25	3.457258388194051e7	4.850629506751978e23	10.269399840256792	10.397932327527188	0.9109797169420475	0.9984907071520112
0.015131607978927543	1.9072243265498715e-25	3.457258388194051e7	4.850629506751978e23	10.269399840256792	10.397932327527188	0.9109797169420475	0.9984907071520112
0.01519258022775454	1.9401154056153991e-25	3.457258388194051e7	4.850629506751978e23	10.269399840256792	10.397932327527188	0.9109797169420475	0.9984907071520112
0.015253798161979368	1.9734420730278117e-25	3.457258388194051e7	4.850629506751978e23	10.269399840256792	10.397932327527188	0.9109797169420475	0.9984907071520112
0.015315262771582213	2.007208531192056e-25	3.457258388194051e7	4.850629506751978e23	10.269399840256792	10.397932327527188	0.9109797169420475	0.9984907071520112
0.015376975050532354	2.0414190192081903e-25	3.457258388194051e7	4.850629506751978e23	10.269399840256792	10.397932327527188	0.9109797169420475	0.9984907071520112
0.015438935996804048	2.0760778131787302e-25	3.457258388194051e7	4.850629506751978e23	10.269399840256792	10.397932327527188	0.9109797169420475	0.9984907071520112
0.015501146612393032	2.111189226518815e-25	3.457258388194051e7	4.850629506751978e23	10.269399840256792	10.397932327527188	0.9109797169420475	0.9984907071520112
0.015563607903332494	2.146757610268588e-25	3.457258388194051e7	4.850629506751978e23	10.269399840256792	10.397932327527188	0.9109797169420475	0.9984907071520112
0.015626320879709447	2.1827873534083506e-25	3.457258388194051e7	4.850629506751978e23	10.269399840256792	10.397932327527188	0.9109797169420475	0.9984907071520112
0.015689286555680835	2.219282883176098e-25	3.457258388194051e7	4.850629506751978e23	10.269399840256792	10.397932327527188	0.9109797169420475	0.9984907071520112
0.01575250594949029	2.2562486653880075e-25	3.457258388194051e7	4.850629506751978e23	10.269399840256792	10.397932327527188	0.9109797169420475	0.9984907071520112
0.015815980083484418	2.293689204761267e-25	3.457258388194051e7	4.850629506751978e23	10.269399840256792	10.397932327527188	0.9109797169420475	0.9984907071520112
0.01587970998412915	2.33160904523952e-25	3.457258388194051e7	4.850629506751978e23	10.269399840256792	10.397932327527188	0.9109797169420475	0.9984907071520112
0.015943696682026706	2.370012770321332e-25	3.457258388194051e7	4.850629506751978e23	10.269399840256792	10.397932327527188	0.9109797169420475	0.9984907071520112
0.016007941211932088	2.4089050033910395e-25	3.457258388194051e7	4.850629506751978e23	10.269399840256792	10.397932327527188	0.9109797169420475	0.9984907071520112
0.016072444612769604	2.4482904080522793e-25	3.457258388194051e7	4.850629506751978e23	10.269399840256792	10.397932327527188	0.9109797169420475	0.9984907071520112
0.016137207927650058	2.4881736884646205e-25	3.457258388194051e7	4.850629506751978e23	10.269399840256792	10.397932327527188	0.9109797169420475	0.9984907071520112
0.016202232203887383	2.528559589682599e-25	3.457258388194051e7	4.850629506751978e23	10.269399840256792	10.397932327527188	0.9109797169420475	0.9984907071520112
0.016267518493015675	2.5694528979977234e-25	3.457258388194051e7	4.850629506751978e23	10.269399840256792	10.397932327527188	0.9109797169420475	0.9984907071520112
0.016333067850805953	2.61085844128308e-25	3.457258388194051e7	4.850629506751978e23	10.269399840256792	10.397932327527188	0.9109797169420475	0.9984907071520112
0.016398881337283625	2.652781089341176e-25	3.457258388194051e7	4.850629506751978e23	10.269399840256792	10.397932327527188	0.9109797169420475	0.9984907071520112
