r[m]	M[Msun]	rho[g/cm^3]	P[N/m^2]	n_e[pm^-3]	n_p[pm^-3]	muF_e[MeV]	B
0.01000000000000002	2.0372517354882184e-39	1.6053532585382524e8	4.0321444050239324e24	47.68943932527508	48.26599705297378	1.7611319653270132	0.9972159141608719
0.010039607198097825	4.079781514964671e-27	1.6053532585382524e8	4.0321444050239324e24	47.68943932527508	48.26599705297378	1.7611319653270132	0.9972159141608719
0.01007937126920979	8.291191749107639e-27	1.6053532585382524e8	4.0321444050239324e24	47.68943932527508	48.26599705297378	1.7611319653270132	0.9972159141608719
0.010119292834665884	1.2619753770751927e-26	1.6053532585382524e8	4.0321444050239324e24	47.68943932527508	48.26599705297378	1.7611319653270132	0.9972159141608719
0.010159372518257158	1.7050624414083556e-26	1.6053532585382524e8	4.0321444050239324e24	47.68943932527508	48.26599705297378	1.7611319653270132	0.9972159141608719
0.01019961094624516	2.1568588112029084e-26	1.6053532585382524e8	4.0321444050239324e24	47.68943932527508	48.26599705297378	1.7611319653270132	0.9972159141608719
0.01024000874737205	2.6158050640327243e-26	1.6053532585382524e8	4.0321444050239324e24	47.68943932527508	48.26599705297378	1.7611319653270132	0.9972159141608719
0.010280566552870095	3.0803032771459916e-26	1.6053532585382524e8	4.0321444050239324e24	47.68943932527508	48.26599705297378	1.7611319653270132	0.9972159141608719
0.010321284996471858	3.5487163837391494e-26	1.6053532585382524e8	4.0321444050239324e24	47.68943932527508	48.26599705297378	1.7611319653270132	0.9972159141608719
0.010362164714419777	4.0193675199751984e-26	1.6053532585382524e8	4.0321444050239324e24	47.68943932527508	48.26599705297378	1.7611319653270132	0.9972159141608719
0.010403206345476432	4.490539362637888e-26	1.6053532585382524e8	4.0321444050239324e24	47.68943932527508	48.26599705297378	1.7611319653270132	0.9972159141608719
0.010444410530934195	4.9604734572822906e-26	1.6053532585382524e8	4.0321444050239324e24	47.68943932527508	48.26599705297378	1.7611319653270132	0.9972159141608719
0.010485777914625592	5.427369536770328e-26	1.6053532585382524e8	4.0321444050239324e24	47.68943932527508	48.26599705297378	1.7611319653270132	0.9972159141608719
0.010527309142933011	5.895814591143107e-26	1.6053532585382524e8	4.0321444050239324e24	47.68943932527508	48.26599705297378	1.7611319653270132	0.9972159141608719
0.010569004864799154	6.379155594141502e-26	1.6053532585382524e8	4.0321444050239324e24	47.68943932527508	48.26599705297378	1.7611319653270132	0.9972159141608719
0.010610865731736831	6.876271589644432e-26	1.6053532585382524e8	4.0321444050239324e24	47.68943932527508	48.26599705297378	1.7611319653270132	0.9972159141608719
0.01065289239783949	7.385364718108312e-26	1.6053532585382524e8	4.0321444050239324e24	47.68943932527508	48.26599705297378	1.7611319653270132	0.9972159141608719
0.010695085519791075	7.904592075251581e-26	1.6053532585382524e8	4.0321444050239324e24	47.68943932527508	48.26599705297378	1.7611319653270132	0.9972159141608719
0.010737445756876653	8.432064955632068e-26	1.6053532585382524e8	4.0321444050239324e24	47.68943932527508	48.26599705297378	1.7611319653270132	0.9972159141608719
0.01077997377099236	8.965848085327527e-26	1.6053532585382524e8	4.0321444050239324e24	47.68943932527508	48.26599705297378	1.7611319653270132	0.9972159141608719
0.01082267022665609	9.503958843591236e-26	1.6053532585382524e8	4.0321444050239324e24	47.68943932527508	48.26599705297378	1.7611319653270132	0.9972159141608719
0.01086553579101753	1.0044366473318373e-25	1.6053532585382524e8	4.0321444050239324e24	47.68943932527508	48.26599705297378	1.7611319653270132	0.9972159141608719
0.010908571133868939	1.058499128019167e-25	1.6053532585382524e8	4.0321444050239324e24	47.68943932527508	48.26599705297378	1.7611319653270132	0.9972159141608719
0.010951776927655256	1.1123703820337898e-25	1.6053532585382524e8	4.0321444050239324e24	47.68943932527508	48.26599705297378	1.7611319653270132	0.9972159141608719
0.010995153847484965	1.1658421650867126e-25	1.6053532585382524e8	4.0321444050239324e24	47.68943932527508	48.26599705297378	1.7611319653270132	0.9972159141608719
0.011038702571140285	1.2202155030445575e-25	1.6053532585382524e8	4.0321444050239324e24	47.68943932527508	48.26599705297378	1.7611319653270132	0.9972159141608719
0.011082423779088121	1.2764548859560506e-25	1.6053532585382524e8	4.0321444050239324e24	47.68943932527508	48.26599705297378	1.7611319653270132	0.9972159141608719
0.01112631815449034	1.3344622428909655e-25	1.6053532585382524e8	4.0321444050239324e24	47.68943932527508	48.26599705297378	1.7611319653270132	0.9972159141608719
0.011170386383214754	1.3941368630460621e-25	1.6053532585382524e8	4.0321444050239324e24	47.68943932527508	48.26599705297378	1.7611319653270132	0.9972159141608719
0.011214629153845702	1.4553753505466372e-25	1.6053532585382524e8	4.0321444050239324e24	47.68943932527508	48.26599705297378	1.7611319653270132	0.9972159141608719
0.011259047157694681	1.5180715785919907e-25	1.6053532585382524e8	4.0321444050239324e24	47.68943932527508	48.26599705297378	1.7611319653270132	0.9972159141608719
0.011303641088811465	1.5821166429366972e-25	1.6053532585382524e8	4.0321444050239324e24	47.68943932527508	48.26599705297378	1.7611319653270132	0.9972159141608719
0.01134841164399457	1.6473988146971561e-25	1.6053532585382524e8	4.0321444050239324e24	47.68943932527508	48.26599705297378	1.7611319653270132	0.9972159141608719
0.011393359522802533	1.7138034924764806e-25	1.6053532585382524e8	4.0321444050239324e24	47.68943932527508	48.26599705297378	1.7611319653270132	0.9972159141608719
0.01143848542756445	1.781213153796418e-25	1.6053532585382524e8	4.0321444050239324e24	47.68943932527508	48.26599705297378	1.7611319653270132	0.9972159141608719
0.01148379006339134	1.8495073058292425e-25	1.6053532585382524e8	4.0321444050239324e24	47.68943932527508	48.26599705297378	1.7611319653270132	0.9972159141608719
0.011529274138186777	1.9185624354180632e-25	1.6053532585382524e8	4.0321444050239324e24	47.68943932527508	48.26599705297378	1.7611319653270132	0.9972159141608719
0.011574938362658332	1.9882519583782974e-25	1.6053532585382524e8	4.0321444050239324e24	47.68943932527508	48.26599705297378	1.7611319653270132	0.9972159141608719
0.011620783450328303	2.0584461680684263e-25	1.6053532585382524e8	4.0321444050239324e24	47.68943932527508	48.26599705297378	1.7611319653270132	0.9972159141608719
0.011666810117545239	2.1290121832226144e-25	1.6053532585382524e8	4.0321444050239324e24	47.68943932527508	48.26599705297378	1.7611319653270132	0.9972159141608719
0.01171301908349475	2.1998138950330115e-25	1.6053532585382524e8	4.0321444050239324e24	47.68943932527508	48.26599705297378	1.7611319653270132	0.9972159141608719
0.011759411070211135	2.2707119134741253e-25	1.6053532585382524e8	4.0321444050239324e24	47.68943932527508	48.26599705297378	1.7611319653270132	0.9972159141608719
0.011805986802588275	2.341563512856764e-25	1.6053532585382524e8	4.0321444050239324e24	47.68943932527508	48.26599705297378	1.7611319653270132	0.9972159141608719
0.011852747008391342	2.4122225766037134e-25	1.6053532585382524e8	4.0321444050239324e24	47.68943932527508	48.26599705297378	1.7611319653270132	0.9972159141608719
0.011899692418267797	2.4825395412344377e-25	1.6053532585382524e8	4.0321444050239324e24	47.68943932527508	48.26599705297378	1.7611319653270132	0.9972159141608719
0.011946823765759175	2.552361339550563e-25	1.6053532585382524e8	4.0321444050239324e24	47.68943932527508	48.26599705297378	1.7611319653270132	0.9972159141608719
0.011994141787312177	2.621627117205403e-25	1.6053532585382524e8	4.0321444050239324e24	47.68943932527508	48.26599705297378	1.7611319653270132	0.9972159141608719
0.012041647222290553	2.6924489050211077e-25	1.6053532585382524e8	4.0321444050239324e24	47.68943932527508	48.26599705297378	1.7611319653270132	0.9972159141608719
0.012089340812986269	2.76564474733749e-25	1.6053532585382524e8	4.0321444050239324e24	47.68943932527508	48.26599705297378	1.7611319653270132	0.9972159141608719
0.012137223304631505	2.84107347551824e-25	1.6053532585382524e8	4.0321444050239324e24	47.68943932527508	48.26599705297378	1.7611319653270132	0.9972159141608719
0.01218529544540989	2.9185901722539807e-25	1.6053532585382524e8	4.0321444050239324e24	47.68943932527508	48.26599705297378	1.7611319653270132	0.9972159141608719
0.012233557986468604	2.9980461076074464e-25	1.6053532585382524e8	4.0321444050239324e24	47.68943932527508	48.26599705297378	1.7611319653270132	0.9972159141608719
0.012282011681929711	3.0792886741304663e-25	1.6053532585382524e8	4.0321444050239324e24	47.68943932527508	48.26599705297378	1.7611319653270132	0.9972159141608719
0.01233065728890234	3.1621613210429246e-25	1.6053532585382524e8	4.0321444050239324e24	47.68943932527508	48.26599705297378	1.7611319653270132	0.9972159141608719
0.01237949556749411	3.246503487458538e-25	1.6053532585382524e8	4.0321444050239324e24	47.68943932527508	48.26599705297378	1.7611319653270132	0.9972159141608719
0.012428527280823377	3.332150534647293e-25	1.6053532585382524e8	4.0321444050239324e24	47.68943932527508	48.26599705297378	1.7611319653270132	0.9972159141608719
0.012477753195030986	3.418933677319531e-25	1.6053532585382524e8	4.0321444050239324e24	47.68943932527508	48.26599705297378	1.7611319653270132	0.9972159141608719
0.0125271740792921	3.5066799139195077e-25	1.6053532585382524e8	4.0321444050239324e24	47.68943932527508	48.26599705297378	1.7611319653270132	0.9972159141608719
0.012576790705828574	3.5952119559160817e-25	1.6053532585382524e8	4.0321444050239324e24	47.68943932527508	48.26599705297378	1.7611319653270132	0.9972159141608719
0.012626603849920613	3.6843481560749065e-25	1.6053532585382524e8	4.0321444050239324e24	47.68943932527508	48.26599705297378	1.7611319653270132	0.9972159141608719
0.0126766142899193	3.7739024357014065e-25	1.6053532585382524e8	4.0321444050239324e24	47.68943932527508	48.26599705297378	1.7611319653270132	0.9972159141608719
0.012726822807258332	3.8636842108378074e-25	1.6053532585382524e8	4.0321444050239324e24	47.68943932527508	48.26599705297378	1.7611319653270132	0.9972159141608719
0.01277723018646666	3.953498317403358e-25	1.6053532585382524e8	4.0321444050239324e24	47.68943932527508	48.26599705297378	1.7611319653270132	0.9972159141608719
0.012827837215180327	4.043144935260634e-25	1.6053532585382524e8	4.0321444050239324e24	47.68943932527508	48.26599705297378	1.7611319653270132	0.9972159141608719
0.012878644684155185	4.1324195111966145e-25	1.6053532585382524e8	4.0321444050239324e24	47.68943932527508	48.26599705297378	1.7611319653270132	0.9972159141608719
0.012929653387278847	4.221112680801199e-25	1.6053532585382524e8	4.0321444050239324e24	47.68943932527508	48.26599705297378	1.7611319653270132	0.9972159141608719
0.012980864121583493	4.30902995321976e-25	1.6053532585382524e8	4.0321444050239324e24	47.68943932527508	48.26599705297378	1.7611319653270132	0.9972159141608719
0.013032277687257919	4.397413420223687e-25	1.6053532585382524e8	4.0321444050239324e24	47.68943932527508	48.26599705297378	1.7611319653270132	0.9972159141608719
0.013083894887660458	4.4871141405914785e-25	1.6053532585382524e8	4.0321444050239324e24	47.68943932527508	48.26599705297378	1.7611319653270132	0.9972159141608719
0.013135716529331104	4.578145008313866e-25	1.6053532585382524e8	4.0321444050239324e24	47.68943932527508	48.26599705297378	1.7611319653270132	0.9972159141608719
0.013187743422004542	4.670519029382555e-25	1.6053532585382524e8	4.0321444050239324e24	47.68943932527508	48.26599705297378	1.7611319653270132	0.9972159141608719
0.01323997637862238	4.764249322716655e-25	1.6053532585382524e8	4.0321444050239324e24	47.68943932527508	48.26599705297378	1.7611319653270132	0.9972159141608719
0.013292416215346273	4.859349121098203e-25	1.6053532585382524e8	4.0321444050239324e24	47.68943932527508	48.26599705297378	1.7611319653270132	0.9972159141608719
0.013345063751570246	4.955831772113677e-25	1.6053532585382524e8	4.0321444050239324e24	47.68943932527508	48.26599705297378	1.7611319653270132	0.9972159141608719
0.01339791980993393	5.053710739104735e-25	1.6053532585382524e8	4.0321444050239324e24	47.68943932527508	48.26599705297378	1.7611319653270132	0.9972159141608719
0.01345098521633499	5.152999602125032e-25	1.6053532585382524e8	4.0321444050239324e24	47.68943932527508	48.26599705297378	1.7611319653270132	0.9972159141608719
0.01350426079994245	5.2537120589064015e-25	1.6053532585382524e8	4.0321444050239324e24	47.68943932527508	48.26599705297378	1.7611319653270132	0.9972159141608719
0.013557747393209226	5.355861925831247e-25	1.6053532585382524e8	4.0321444050239324e24	47.68943932527508	48.26599705297378	1.7611319653270132	0.9972159141608719
0.013611445831885567	5.459463138914468e-25	1.6053532585382524e8	4.0321444050239324e24	47.68943932527508	48.26599705297378	1.7611319653270132	0.9972159141608719
0.013665356955031675	5.564529754791616e-25	1.6053532585382524e8	4.0321444050239324e24	47.68943932527508	48.26599705297378	1.7611319653270132	0.9972159141608719
0.013719481605031248	5.671075951716756e-25	1.6053532585382524e8	4.0321444050239324e24	47.68943932527508	48.26599705297378	1.7611319653270132	0.9972159141608719
0.013773820627604216	5.779116030566791e-25	1.6053532585382524e8	4.0321444050239324e24	47.68943932527508	48.26599705297378	1.7611319653270132	0.9972159141608719
0.013828374871820336	5.888664415855349e-25	1.6053532585382524e8	4.0321444050239324e24	47.68943932527508	48.26599705297378	1.7611319653270132	0.9972159141608719
0.013883145190112285	5.999735656753942e-25	1.6053532585382524e8	4.0321444050239324e24	47.68943932527508	48.26599705297378	1.7611319653270132	0.9972159141608719
0.013938132438288824	6.112344428121351e-25	1.6053532585382524e8	4.0321444050239324e24	47.68943932527508	48.26599705297378	1.7611319653270132	0.9972159141608719
0.013993337475548559	6.226505531542395e-25	1.6053532585382524e8	4.0321444050239324e24	47.68943932527508	48.26599705297378	1.7611319653270132	0.9972159141608719
0.014048761164492909	6.342233896373501e-25	1.6053532585382524e8	4.0321444050239324e24	47.68943932527508	48.26599705297378	1.7611319653270132	0.9972159141608719
0.014104404371140052	6.459544580798509e-25	1.6053532585382524e8	4.0321444050239324e24	47.68943932527508	48.26599705297378	1.7611319653270132	0.9972159141608719
0.014160267964937984	6.578452772891137e-25	1.6053532585382524e8	4.0321444050239324e24	47.68943932527508	48.26599705297378	1.7611319653270132	0.9972159141608719
0.014216352818778574	6.698973791688018e-25	1.6053532585382524e8	4.0321444050239324e24	47.68943932527508	48.26599705297378	1.7611319653270132	0.9972159141608719
0.014272659809010742	6.82112308826841e-25	1.6053532585382524e8	4.0321444050239324e24	47.68943932527508	48.26599705297378	1.7611319653270132	0.9972159141608719
0.01432918981545461	6.944916246844645e-25	1.6053532585382524e8	4.0321444050239324e24	47.68943932527508	48.26599705297378	1.7611319653270132	0.9972159141608719
0.014385943721414789	7.0703689858593705e-25	1.6053532585382524e8	4.0321444050239324e24	47.68943932527508	48.26599705297378	1.7611319653270132	0.9972159141608719
0.014442922413694647	7.197497159093712e-25	1.6053532585382524e8	4.0321444050239324e24	47.68943932527508	48.26599705297378	1.7611319653270132	0.9972159141608719
0.014500126782609691	7.326316756782347e-25	1.6053532585382524e8	4.0321444050239324e24	47.68943932527508	48.26599705297378	1.7611319653270132	0.9972159141608719
0.014557557722001964	7.45684390673966e-25	1.6053532585382524e8	4.0321444050239324e24	47.68943932527508	48.26599705297378	1.7611319653270132	0.9972159141608719
0.014615216129253521	7.589094875492883e-25	1.6053532585382524e8	4.0321444050239324e24	47.68943932527508	48.26599705297378	1.7611319653270132	0.9972159141608719
0.014673102905300946	7.723086069426612e-25	1.6053532585382524e8	4.0321444050239324e24	47.68943932527508	48.26599705297378	1.7611319653270132	0.9972159141608719
0.014731218954648921	7.858834035934253e-25	1.6053532585382524e8	4.0321444050239324e24	47.68943932527508	48.26599705297378	1.7611319653270132	0.9972159141608719
0.014789565185384877	7.996355464581145e-25	1.6053532585382524e8	4.0321444050239324e24	47.68943932527508	48.26599705297378	1.7611319653270132	0.9972159141608719
0.014848142509192674	8.135667188274763e-25	1.6053532585382524e8	4.0321444050239324e24	47.68943932527508	48.26599705297378	1.7611319653270132	0.9972159141608719
0.01490695184136734	8.276786184446638e-25	1.6053532585382524e8	4.0321444050239324e24	47.68943932527508	48.26599705297378	1.7611319653270132	0.9972159141608719
0.01496599410082889	8.41972957624157e-25	1.6053532585382524e8	4.0321444050239324e24	47.68943932527508	48.26599705297378	1.7611319653270132	0.9972159141608719
0.015025270210137165	8.564514633718761e-25	1.6053532585382524e8	4.0321444050239324e24	47.68943932527508	48.26599705297378	1.7611319653270132	0.9972159141608719
0.015084781095505763	8.711158775060263e-25	1.6053532585382524e8	4.0321444050239324e24	47.68943932527508	48.26599705297378	1.7611319653270132	0.9972159141608719
0.015144527686816999	8.859679567791665e-25	1.6053532585382524e8	4.0321444050239324e24	47.68943932527508	48.26599705297378	1.7611319653270132	0.9972159141608719
0.015204510917635946	9.010094730010132e-25	1.6053532585382524e8	4.0321444050239324e24	47.68943932527508	48.26599705297378	1.7611319653270132	0.9972159141608719
0.015264731725225515	9.162422131624857e-25	1.6053532585382524e8	4.0321444050239324e24	47.68943932527508	48.26599705297378	1.7611319653270132	0.9972159141608719
0.015325191050560606	9.316679795605058e-25	1.6053532585382524e8	4.0321444050239324e24	47.68943932527508	48.26599705297378	1.7611319653270132	0.9972159141608719
0.015385889838343233	9.472885899240372e-25	1.6053532585382524e8	4.0321444050239324e24	47.68943932527508	48.26599705297378	1.7611319653270132	0.9972159141608719
0.015446829037017126	9.631058775409921e-25	1.6053532585382524e8	4.0321444050239324e24	47.68943932527508	48.26599705297378	1.7611319653270132	0.9972159141608719
0.015508009598782338	9.79121691386153e-25	1.6053532585382524e8	4.0321444050239324e24	47.68943932527508	48.26599705297378	1.7611319653270132	0.9972159141608719
0.015569432479610568	9.953378962502945e-25	1.6053532585382524e8	4.0321444050239324e24	47.68943932527508	48.26599705297378	1.7611319653270132	0.9972159141608719
0.015631098639259603	1.0117563728701064e-24	1.6053532585382524e8	4.0321444050239324e24	47.68943932527508	48.26599705297378	1.7611319653270132	0.9972159141608719
0.01569300904128882	1.028379018059419e-24	1.6053532585382524e8	4.0321444050239324e24	47.68943932527508	48.26599705297378	1.7611319653270132	0.9972159141608719
0.01575516465307372	1.0452077448412337e-24	1.6053532585382524e8	4.0321444050239324e24	47.68943932527508	48.26599705297378	1.7611319653270132	0.9972159141608719
0.01581756644582157	1.0622444825810819e-24	1.6053532585382524e8	4.0321444050239324e24	47.68943932527508	48.26599705297378	1.7611319653270132	0.9972159141608719
0.015880215394586054	1.0794911771211858e-24	1.6053532585382524e8	4.0321444050239324e24	47.68943932527508	48.26599705297378	1.7611319653270132	0.9972159141608719
0.01594311247828304	1.0969497909159892e-24	1.6053532585382524e8	4.0321444050239324e24	47.68943932527508	48.26599705297378	1.7611319653270132	0.9972159141608719
0.01600625867970534	1.1146223031684854e-24	1.6053532585382524e8	4.0321444050239324e24	47.68943932527508	48.26599705297378	1.7611319653270132	0.9972159141608719
0.016069654985538587	1.1325107099679478e-24	1.6053532585382524e8	4.0321444050239324e24	47.68943932527508	48.26599705297378	1.7611319653270132	0.9972159141608719
0.016133302386376152	1.15061702442847e-24	1.6053532585382524e8	4.0321444050239324e24	47.68943932527508	48.26599705297378	1.7611319653270132	0.9972159141608719
0.01619720187673512	1.1689432768289224e-24	1.6053532585382524e8	4.0321444050239324e24	47.68943932527508	48.26599705297378	1.7611319653270132	0.9972159141608719
0.016261354455071323	1.1874915147537428e-24	1.6053532585382524e8	4.0321444050239324e24	47.68943932527508	48.26599705297378	1.7611319653270132	0.9972159141608719
