r[m]	M[Msun]	rho[g/cm^3]	P[N/m^2]	n_e[pm^-3]	n_p[pm^-3]	muF_e[MeV]	B
0.009999999999999981	-5.49721788427448e-38	4.754539203772336e9	3.876879227879342e26	1418.7199240846735	4280.951489835429	6.367973472109761	0.9907025825667733
0.010037875353129225	1.1523199139712243e-25	4.754539203772336e9	3.876879227879342e26	1418.7199240846735	4280.951489835429	6.367973472109761	0.9907025825667733
0.010075894160495938	2.3272519642097045e-25	4.754539203772336e9	3.876879227879342e26	1418.7199240846735	4280.951489835429	6.367973472109761	0.9907025825667733
0.010114056965438106	3.5082228920526015e-25	4.754539203772336e9	3.876879227879342e26	1418.7199240846735	4280.951489835429	6.367973472109761	0.9907025825667733
0.010152364313351633	4.698226389278044e-25	4.754539203772336e9	3.876879227879342e26	1418.7199240846735	4280.951489835429	6.367973472109761	0.9907025825667733
0.010190816751698127	5.913305653434857e-25	4.754539203772336e9	3.876879227879342e26	1418.7199240846735	4280.951489835429	6.367973472109761	0.9907025825667733
0.010229414830012728	7.136636497203965e-25	4.754539203772336e9	3.876879227879342e26	1418.7199240846735	4280.951489835429	6.367973472109761	0.9907025825667733
0.010268159099911954	8.359868106004196e-25	4.754539203772336e9	3.876879227879342e26	1418.7199240846735	4280.951489835429	6.367973472109761	0.9907025825667733
0.010307050115101642	9.596383253417493e-25	4.754539203772336e9	3.876879227879342e26	1418.7199240846735	4280.951489835429	6.367973472109761	0.9907025825667733
0.01034608843138467	1.084704734613407e-24	4.754539203772336e9	3.876879227879342e26	1418.7199240846735	4280.951489835429	6.367973472109761	0.9907025825667733
0.01038527460666918	1.2111985812165922e-24	4.754539203772336e9	3.876879227879342e26	1418.7199240846735	4280.951489835429	6.367973472109761	0.9907025825667733
0.010424609200976358	1.3391325099797874e-24	4.754539203772336e9	3.876879227879342e26	1418.7199240846735	4280.951489835429	6.367973472109761	0.9907025825667733
0.010464092776448495	1.468519268559134e-24	4.754539203772336e9	3.876879227879342e26	1418.7199240846735	4280.951489835429	6.367973472109761	0.9907025825667733
0.010503725897357012	1.59937674054926e-24	4.754539203772336e9	3.876879227879342e26	1418.7199240846735	4280.951489835429	6.367973472109761	0.9907025825667733
0.010543509130110531	1.73173427282001e-24	4.754539203772336e9	3.876879227879342e26	1418.7199240846735	4280.951489835429	6.367973472109761	0.9907025825667733
0.010583443043262968	1.8656064209533283e-24	4.754539203772336e9	3.876879227879342e26	1418.7199240846735	4280.951489835429	6.367973472109761	0.9907025825667733
0.010623528207521653	2.0010066120189432e-24	4.754539203772336e9	3.876879227879342e26	1418.7199240846735	4280.951489835429	6.367973472109761	0.9907025825667733
0.01066376519575549	2.1379483823078077e-24	4.754539203772336e9	3.876879227879342e26	1418.7199240846735	4280.951489835429	6.367973472109761	0.9907025825667733
0.01070415458300315	2.27644537818873e-24	4.754539203772336e9	3.876879227879342e26	1418.7199240846735	4280.951489835429	6.367973472109761	0.9907025825667733
0.010744696946481277	2.416517324175832e-24	4.754539203772336e9	3.876879227879342e26	1418.7199240846735	4280.951489835429	6.367973472109761	0.9907025825667733
0.010785392865592748	2.5581948586476057e-24	4.754539203772336e9	3.876879227879342e26	1418.7199240846735	4280.951489835429	6.367973472109761	0.9907025825667733
0.010826242921934945	2.7014932124402352e-24	4.754539203772336e9	3.876879227879342e26	1418.7199240846735	4280.951489835429	6.367973472109761	0.9907025825667733
0.010867247699308072	2.846426752989885e-24	4.754539203772336e9	3.876879227879342e26	1418.7199240846735	4280.951489835429	6.367973472109761	0.9907025825667733
0.010908407783723543	2.993009964599766e-24	4.754539203772336e9	3.876879227879342e26	1418.7199240846735	4280.951489835429	6.367973472109761	0.9907025825667733
0.010949723763412177	3.1412574493560778e-24	4.754539203772336e9	3.876879227879342e26	1418.7199240846735	4280.951489835429	6.367973472109761	0.9907025825667733
0.010991196228832871	3.2911868678968176e-24	4.754539203772336e9	3.876879227879342e26	1418.7199240846735	4280.951489835429	6.367973472109761	0.9907025825667733
0.011032825772680858	3.442820306312324e-24	4.754539203772336e9	3.876879227879342e26	1418.7199240846735	4280.951489835429	6.367973472109761	0.9907025825667733
0.011074612989896232	3.5961774578212175e-24	4.754539203772336e9	3.876879227879342e26	1418.7199240846735	4280.951489835429	6.367973472109761	0.9907025825667733
0.011116558477672437	3.751278203415633e-24	4.754539203772336e9	3.876879227879342e26	1418.7199240846735	4280.951489835429	6.367973472109761	0.9907025825667733
0.01115866283546481	3.9081426535227515e-24	4.754539203772336e9	3.876879227879342e26	1418.7199240846735	4280.951489835429	6.367973472109761	0.9907025825667733
0.011200926664999153	4.066791150645741e-24	4.754539203772336e9	3.876879227879342e26	1418.7199240846735	4280.951489835429	6.367973472109761	0.9907025825667733
0.011243350570280315	4.227244272035047e-24	4.754539203772336e9	3.876879227879342e26	1418.7199240846735	4280.951489835429	6.367973472109761	0.9907025825667733
0.011285935157600843	4.3895228323904355e-24	4.754539203772336e9	3.876879227879342e26	1418.7199240846735	4280.951489835429	6.367973472109761	0.9907025825667733
0.011328681035549631	4.553647886593913e-24	4.754539203772336e9	3.876879227879342e26	1418.7199240846735	4280.951489835429	6.367973472109761	0.9907025825667733
0.011371588815020634	4.719640732474182e-24	4.754539203772336e9	3.876879227879342e26	1418.7199240846735	4280.951489835429	6.367973472109761	0.9907025825667733
0.011414659109221582	4.887522913602662e-24	4.754539203772336e9	3.876879227879342e26	1418.7199240846735	4280.951489835429	6.367973472109761	0.9907025825667733
0.011457892533682755	5.0573162221217356e-24	4.754539203772336e9	3.876879227879342e26	1418.7199240846735	4280.951489835429	6.367973472109761	0.9907025825667733
0.011501289706265773	5.229042701605389e-24	4.754539203772336e9	3.876879227879342e26	1418.7199240846735	4280.951489835429	6.367973472109761	0.9907025825667733
0.011544851247172477	5.40272464995294e-24	4.754539203772336e9	3.876879227879342e26	1418.7199240846735	4280.951489835429	6.367973472109761	0.9907025825667733
0.011588577778953604	5.5783846223149646e-24	4.754539203772336e9	3.876879227879342e26	1418.7199240846735	4280.951489835429	6.367973472109761	0.9907025825667733
0.011632469926517962	5.756045434054707e-24	4.754539203772336e9	3.876879227879342e26	1418.7199240846735	4280.951489835429	6.367973472109761	0.9907025825667733
0.011676528317141182	5.935730163741705e-24	4.754539203772336e9	3.876879227879342e26	1418.7199240846735	4280.951489835429	6.367973472109761	0.9907025825667733
0.011720753580474719	6.117462156180523e-24	4.754539203772336e9	3.876879227879342e26	1418.7199240846735	4280.951489835429	6.367973472109761	0.9907025825667733
0.011765146348554854	6.301265025474221e-24	4.754539203772336e9	3.876879227879342e26	1418.7199240846735	4280.951489835429	6.367973472109761	0.9907025825667733
0.01180970725581173	6.487162658122931e-24	4.754539203772336e9	3.876879227879342e26	1418.7199240846735	4280.951489835429	6.367973472109761	0.9907025825667733
0.011854436939078417	6.67517921615796e-24	4.754539203772336e9	3.876879227879342e26	1418.7199240846735	4280.951489835429	6.367973472109761	0.9907025825667733
0.011899336037600015	6.865339140311939e-24	4.754539203772336e9	3.876879227879342e26	1418.7199240846735	4280.951489835429	6.367973472109761	0.9907025825667733
0.01194440519304278	7.057667153225221e-24	4.754539203772336e9	3.876879227879342e26	1418.7199240846735	4280.951489835429	6.367973472109761	0.9907025825667733
0.011989645049503308	7.25218826268927e-24	4.754539203772336e9	3.876879227879342e26	1418.7199240846735	4280.951489835429	6.367973472109761	0.9907025825667733
0.012035056253517732	7.448927764927082e-24	4.754539203772336e9	3.876879227879342e26	1418.7199240846735	4280.951489835429	6.367973472109761	0.9907025825667733
0.012080639454070964	7.647911247911362e-24	4.754539203772336e9	3.876879227879342e26	1418.7199240846735	4280.951489835429	6.367973472109761	0.9907025825667733
0.01212639530260597	7.849164594720753e-24	4.754539203772336e9	3.876879227879342e26	1418.7199240846735	4280.951489835429	6.367973472109761	0.9907025825667733
0.01217232445303312	8.052713986934733e-24	4.754539203772336e9	3.876879227879342e26	1418.7199240846735	4280.951489835429	6.367973472109761	0.9907025825667733
0.012218427561739359	8.258585908066532e-24	4.754539203772336e9	3.876879227879342e26	1418.7199240846735	4280.951489835429	6.367973472109761	0.9907025825667733
0.012264705287597856	8.466807147037436e-24	4.754539203772336e9	3.876879227879342e26	1418.7199240846735	4280.951489835429	6.367973472109761	0.9907025825667733
0.012311158291977247	8.677404801688926e-24	4.754539203772336e9	3.876879227879342e26	1418.7199240846735	4280.951489835429	6.367973472109761	0.9907025825667733
0.012357787238751113	8.890406282336057e-24	4.754539203772336e9	3.876879227879342e26	1418.7199240846735	4280.951489835429	6.367973472109761	0.9907025825667733
0.01240459279430749	9.105839315361582e-24	4.754539203772336e9	3.876879227879342e26	1418.7199240846735	4280.951489835429	6.367973472109761	0.9907025825667733
0.01245157562755838	9.323731946851134e-24	4.754539203772336e9	3.876879227879342e26	1418.7199240846735	4280.951489835429	6.367973472109761	0.9907025825667733
0.012498736409949309	9.544112546270207e-24	4.754539203772336e9	3.876879227879342e26	1418.7199240846735	4280.951489835429	6.367973472109761	0.9907025825667733
0.012546075815468925	9.767009810183277e-24	4.754539203772336e9	3.876879227879342e26	1418.7199240846735	4280.951489835429	6.367973472109761	0.9907025825667733
0.012593594520658644	9.992452766015709e-24	4.754539203772336e9	3.876879227879342e26	1418.7199240846735	4280.951489835429	6.367973472109761	0.9907025825667733
0.012641293204622293	1.0220470775858588e-23	4.754539203772336e9	3.876879227879342e26	1418.7199240846735	4280.951489835429	6.367973472109761	0.9907025825667733
0.012689172549035833	1.0451093540317481e-23	4.754539203772336e9	3.876879227879342e26	1418.7199240846735	4280.951489835429	6.367973472109761	0.9907025825667733
0.012737233238157097	1.0684351102405136e-23	4.754539203772336e9	3.876879227879342e26	1418.7199240846735	4280.951489835429	6.367973472109761	0.9907025825667733
0.012785475958835574	1.0920273851478971e-23	4.754539203772336e9	3.876879227879342e26	1418.7199240846735	4280.951489835429	6.367973472109761	0.9907025825667733
0.012833901400522211	1.1158892527223593e-23	4.754539203772336e9	3.876879227879342e26	1418.7199240846735	4280.951489835429	6.367973472109761	0.9907025825667733
0.012882510255279332	1.1400238223679474e-23	4.754539203772336e9	3.876879227879342e26	1418.7199240846735	4280.951489835429	6.367973472109761	0.9907025825667733
0.012931303217790319	1.1644342393316324e-23	4.754539203772336e9	3.876879227879342e26	1418.7199240846735	4280.951489835429	6.367973472109761	0.9907025825667733
0.012980280985369831	1.189123685115583e-23	4.754539203772336e9	3.876879227879342e26	1418.7199240846735	4280.951489835429	6.367973472109761	0.9907025825667733
0.013029444257973604	1.2140953778939343e-23	4.754539203772336e9	3.876879227879342e26	1418.7199240846735	4280.951489835429	6.367973472109761	0.9907025825667733
0.013078793738208461	1.2393525729344213e-23	4.754539203772336e9	3.876879227879342e26	1418.7199240846735	4280.951489835429	6.367973472109761	0.9907025825667733
0.01312833013134238	1.2648985630248635e-23	4.754539203772336e9	3.876879227879342e26	1418.7199240846735	4280.951489835429	6.367973472109761	0.9907025825667733
0.013178054145314573	1.2907366789045237e-23	4.754539203772336e9	3.876879227879342e26	1418.7199240846735	4280.951489835429	6.367973472109761	0.9907025825667733
0.013227966490745584	1.3168702897004082e-23	4.754539203772336e9	3.876879227879342e26	1418.7199240846735	4280.951489835429	6.367973472109761	0.9907025825667733
0.013278067880947465	1.3433028033685865e-23	4.754539203772336e9	3.876879227879342e26	1418.7199240846735	4280.951489835429	6.367973472109761	0.9907025825667733
0.013328359031933962	1.3700376671405644e-23	4.754539203772336e9	3.876879227879342e26	1418.7199240846735	4280.951489835429	6.367973472109761	0.9907025825667733
0.013378840662430749	1.3970781031853003e-23	4.754539203772336e9	3.876879227879342e26	1418.7199240846735	4280.951489835429	6.367973472109761	0.9907025825667733
0.013429513493885695	1.424426981318445e-23	4.754539203772336e9	3.876879227879342e26	1418.7199240846735	4280.951489835429	6.367973472109761	0.9907025825667733
0.013480378250479184	1.4520877924563908e-23	4.754539203772336e9	3.876879227879342e26	1418.7199240846735	4280.951489835429	6.367973472109761	0.9907025825667733
0.013531435659134453	1.4800640944123306e-23	4.754539203772336e9	3.876879227879342e26	1418.7199240846735	4280.951489835429	6.367973472109761	0.9907025825667733
0.013582686449527991	1.508359485578799e-23	4.754539203772336e9	3.876879227879342e26	1418.7199240846735	4280.951489835429	6.367973472109761	0.9907025825667733
0.013634131354100017	1.5369776053905324e-23	4.754539203772336e9	3.876879227879342e26	1418.7199240846735	4280.951489835429	6.367973472109761	0.9907025825667733
0.013685771108064721	1.5659221347924596e-23	4.754539203772336e9	3.876879227879342e26	1418.7199240846735	4280.951489835429	6.367973472109761	0.9907025825667733
0.01373760644942112	1.5951967967133504e-23	4.754539203772336e9	3.876879227879342e26	1418.7199240846735	4280.951489835429	6.367973472109761	0.9907025825667733
0.013789638118963362	1.624805356544532e-23	4.754539203772336e9	3.876879227879342e26	1418.7199240846735	4280.951489835429	6.367973472109761	0.9907025825667733
0.013841866860291386	1.6547516226242493e-23	4.754539203772336e9	3.876879227879342e26	1418.7199240846735	4280.951489835429	6.367973472109761	0.9907025825667733
0.01389429341982154	1.6850394467274918e-23	4.754539203772336e9	3.876879227879342e26	1418.7199240846735	4280.951489835429	6.367973472109761	0.9907025825667733
0.013946918546797247	1.7156727245614253e-23	4.754539203772336e9	3.876879227879342e26	1418.7199240846735	4280.951489835429	6.367973472109761	0.9907025825667733
0.013999742993299726	1.7466553962664788e-23	4.754539203772336e9	3.876879227879342e26	1418.7199240846735	4280.951489835429	6.367973472109761	0.9907025825667733
0.014052767514258716	1.7779914469231153e-23	4.754539203772336e9	3.876879227879342e26	1418.7199240846735	4280.951489835429	6.367973472109761	0.9907025825667733
0.014105992867463288	1.8096849070644215e-23	4.754539203772336e9	3.876879227879342e26	1418.7199240846735	4280.951489835429	6.367973472109761	0.9907025825667733
0.014159419813572669	1.8417398531945256e-23	4.754539203772336e9	3.876879227879342e26	1418.7199240846735	4280.951489835429	6.367973472109761	0.9907025825667733
0.014213049116127098	1.8741604083129156e-23	4.754539203772336e9	3.876879227879342e26	1418.7199240846735	4280.951489835429	6.367973472109761	0.9907025825667733
0.01426688154155876	1.9069507424447687e-23	4.754539203772336e9	3.876879227879342e26	1418.7199240846735	4280.951489835429	6.367973472109761	0.9907025825667733
0.014320917859202725	1.9401150731773e-23	4.754539203772336e9	3.876879227879342e26	1418.7199240846735	4280.951489835429	6.367973472109761	0.9907025825667733
0.014375158841307946	1.973657666202244e-23	4.754539203772336e9	3.876879227879342e26	1418.7199240846735	4280.951489835429	6.367973472109761	0.9907025825667733
0.01442960526304836	2.0075828358645636e-23	4.754539203772336e9	3.876879227879342e26	1418.7199240846735	4280.951489835429	6.367973472109761	0.9907025825667733
0.014484257902533717	2.041894945717208e-23	4.754539203772336e9	3.876879227879342e26	1418.7199240846735	4280.951489835429	6.367973472109761	0.9907025825667733
0.014539117540821071	2.0765984090826133e-23	4.754539203772336e9	3.876879227879342e26	1418.7199240846735	4280.951489835429	6.367973472109761	0.9907025825667733
0.014594184961925692	2.111697689620182e-23	4.754539203772336e9	3.876879227879342e26	1418.7199240846735	4280.951489835429	6.367973472109761	0.9907025825667733
0.014649460952832337	2.1471973019004676e-23	4.754539203772333e9	3.876879227879339e26	1418.719924084673	4280.951489835426	6.36797347210976	0.9907025825667733
0.0147049463035065	2.1831018119858464e-23	4.754539203772333e9	3.876879227879339e26	1418.719924084673	4280.951489835426	6.36797347210976	0.9907025825667733
0.014760641806905688	2.219415838017811e-23	4.754539203772333e9	3.876879227879339e26	1418.719924084673	4280.951489835426	6.36797347210976	0.9907025825667733
0.014816548258990774	2.256144050810982e-23	4.754539203772333e9	3.876879227879339e26	1418.719924084673	4280.951489835426	6.36797347210976	0.9907025825667733
0.014872666458737352	2.293291174453868e-23	4.754539203772333e9	3.876879227879339e26	1418.719924084673	4280.951489835426	6.36797347210976	0.9907025825667733
0.014928997208147167	2.3308619869165005e-23	4.754539203772333e9	3.876879227879339e26	1418.719924084673	4280.951489835426	6.36797347210976	0.9907025825667733
0.014985541312259579	2.3688613206649883e-23	4.754539203772333e9	3.876879227879339e26	1418.719924084673	4280.951489835426	6.36797347210976	0.9907025825667733
0.01504229957916305	2.4072940632830753e-23	4.754539203772333e9	3.876879227879339e26	1418.719924084673	4280.951489835426	6.36797347210976	0.9907025825667733
0.015099272820006721	2.446165158100813e-23	4.754539203772333e9	3.876879227879339e26	1418.719924084673	4280.951489835426	6.36797347210976	0.9907025825667733
0.015156461849011978	2.485479604830367e-23	4.754539203772333e9	3.876879227879339e26	1418.719924084673	4280.951489835426	6.36797347210976	0.9907025825667733
0.015213867483484104	2.5252424602091047e-23	4.754539203772333e9	3.876879227879339e26	1418.719924084673	4280.951489835426	6.36797347210976	0.9907025825667733
0.015271490543824016	2.5654588386500512e-23	4.754539203772333e9	3.876879227879339e26	1418.719924084673	4280.951489835426	6.36797347210976	0.9907025825667733
0.015329331853539742	2.6061339128995434e-23	4.754539203772333e9	3.876879227879339e26	1418.719924084673	4280.951489835426	6.36797347210976	0.9907025825667733
0.015387392239258566	2.647272914702825e-23	4.754539203772333e9	3.876879227879339e26	1418.719924084673	4280.951489835426	6.36797347210976	0.9907025825667733
0.015445672530738577	2.6888811354767856e-23	4.754539203772333e9	3.876879227879339e26	1418.719924084673	4280.951489835426	6.36797347210976	0.9907025825667733
0.015504173560880618	2.7309639269906254e-23	4.754539203772333e9	3.876879227879339e26	1418.719924084673	4280.951489835426	6.36797347210976	0.9907025825667733
0.015562896165740164	2.773526702054187e-23	4.754539203772333e9	3.876879227879339e26	1418.719924084673	4280.951489835426	6.36797347210976	0.9907025825667733
0.015621841184539284	2.816574935214188e-23	4.754539203772333e9	3.876879227879339e26	1418.719924084673	4280.951489835426	6.36797347210976	0.9907025825667733
0.015681009459678624	2.8601141634583564e-23	4.754539203772333e9	3.876879227879339e26	1418.719924084673	4280.951489835426	6.36797347210976	0.9907025825667733
0.015740401836749462	2.9041499869276317e-23	4.754539203772333e9	3.876879227879339e26	1418.719924084673	4280.951489835426	6.36797347210976	0.9907025825667733
0.01580001916454577	2.9486880696364535e-23	4.754539203772333e9	3.876879227879339e26	1418.719924084673	4280.951489835426	6.36797347210976	0.9907025825667733
0.015859862295076372	2.993734140201294e-23	4.754539203772333e9	3.876879227879339e26	1418.719924084673	4280.951489835426	6.36797347210976	0.9907025825667733
0.015919932083577094	3.03929399257749e-23	4.754539203772333e9	3.876879227879339e26	1418.719924084673	4280.951489835426	6.36797347210976	0.9907025825667733
0.015980229388523004	3.0853734868044696e-23	4.754539203772333e9	3.876879227879339e26	1418.719924084673	4280.951489835426	6.36797347210976	0.9907025825667733
0.01604075507164067	3.131978549759495e-23	4.754539203772333e9	3.876879227879339e26	1418.719924084673	4280.951489835426	6.36797347210976	0.9907025825667733
