r[m]	M[Msun]	rho[g/cm^3]	P[N/m^2]	n_e[pm^-3]	n_p[pm^-3]	muF_e[MeV]	B
0.009999999999999988	-8.057565939963964e-38	1.1648572990788206e10	1.2690997621990394e27	3446.495472363662	2621.555148739432	8.724995938781817	0.9875630859125372
0.010037350431315177	2.78363998364789e-25	1.1648572990788206e10	1.2690997621990394e27	3446.495472363662	2621.555148739432	8.724995938781817	0.9875630859125372
0.01007484036810235	5.621653903350212e-25	1.1648572990788206e10	1.2690997621990394e27	3446.495472363662	2621.555148739432	8.724995938781817	0.9875630859125372
0.01011247033142038	8.475071974112329e-25	1.1648572990788206e10	1.2690997621990394e27	3446.495472363662	2621.555148739432	8.724995938781817	0.9875630859125372
0.010150240844274483	1.1347219986403472e-24	1.1648572990788206e10	1.2690997621990394e27	3446.495472363662	2621.555148739432	8.724995938781817	0.9875630859125372
0.010188152431623153	1.4280377333066601e-24	1.1648572990788206e10	1.2690997621990394e27	3446.495472363662	2621.555148739432	8.724995938781817	0.9875630859125372
0.010226205620385797	1.7235846772057965e-24	1.1648572990788206e10	1.2690997621990394e27	3446.495472363662	2621.555148739432	8.724995938781817	0.9875630859125372
0.01026440093944972	2.0189576755952014e-24	1.1648572990788206e10	1.2690997621990394e27	3446.495472363662	2621.555148739432	8.724995938781817	0.9875630859125372
0.010302738919677808	2.3173589785672393e-24	1.1648572990788206e10	1.2690997621990394e27	3446.495472363662	2621.555148739432	8.724995938781817	0.9875630859125372
0.010341220093915585	2.6191281333503065e-24	1.1648572990788206e10	1.2690997621990394e27	3446.495472363662	2621.555148739432	8.724995938781817	0.9875630859125372
0.010379844996998932	2.924294582872334e-24	1.1648572990788206e10	1.2690997621990394e27	3446.495472363662	2621.555148739432	8.724995938781817	0.9875630859125372
0.010418614165761205	3.232888006240341e-24	1.1648572990788206e10	1.2690997621990394e27	3446.495472363662	2621.555148739432	8.724995938781817	0.9875630859125372
0.010457528139041019	3.5449383205696176e-24	1.1648572990788206e10	1.2690997621990394e27	3446.495472363662	2621.555148739432	8.724995938781817	0.9875630859125372
0.01049658745768941	3.860482635323898e-24	1.1648572990788206e10	1.2690997621990394e27	3446.495472363662	2621.555148739432	8.724995938781817	0.9875630859125372
0.010535792664577683	4.179591786897152e-24	1.1648572990788206e10	1.2690997621990394e27	3446.495472363662	2621.555148739432	8.724995938781817	0.9875630859125372
0.010575144304604621	4.502303454101829e-24	1.1648572990788206e10	1.2690997621990394e27	3446.495472363662	2621.555148739432	8.724995938781817	0.9875630859125372
0.0106146429247044	4.8286491337274756e-24	1.1648572990788206e10	1.2690997621990394e27	3446.495472363662	2621.555148739432	8.724995938781817	0.9875630859125372
0.010654289073853842	5.158660575225324e-24	1.1648572990788206e10	1.2690997621990394e27	3446.495472363662	2621.555148739432	8.724995938781817	0.9875630859125372
0.010694083303080401	5.4923697826655016e-24	1.1648572990788206e10	1.2690997621990394e27	3446.495472363662	2621.555148739432	8.724995938781817	0.9875630859125372
0.010734026165469463	5.829815354470905e-24	1.1648572990788206e10	1.2690997621990394e27	3446.495472363662	2621.555148739432	8.724995938781817	0.9875630859125372
0.01077411821617239	6.171072063412994e-24	1.1648572990788206e10	1.2690997621990394e27	3446.495472363662	2621.555148739432	8.724995938781817	0.9875630859125372
0.010814360012413878	6.516181007866413e-24	1.1648572990788206e10	1.2690997621990394e27	3446.495472363662	2621.555148739432	8.724995938781817	0.9875630859125372
0.01085475211350006	6.865175867152947e-24	1.1648572990788206e10	1.2690997621990394e27	3446.495472363662	2621.555148739432	8.724995938781817	0.9875630859125372
0.010895295080825929	7.218090590761536e-24	1.1648572990788206e10	1.2690997621990394e27	3446.495472363662	2621.555148739432	8.724995938781817	0.9875630859125372
0.010935989477883483	7.574959400440977e-24	1.1648572990788206e10	1.2690997621990394e27	3446.495472363662	2621.555148739432	8.724995938781817	0.9875630859125372
0.010976835870269217	7.935819543036676e-24	1.1648572990788206e10	1.2690997621990394e27	3446.495472363662	2621.555148739432	8.724995938781817	0.9875630859125372
0.01101783482569232	8.300722674440559e-24	1.1648572990788206e10	1.2690997621990394e27	3446.495472363662	2621.555148739432	8.724995938781817	0.9875630859125372
0.011058986913982233	8.669715977857483e-24	1.1648572990788206e10	1.2690997621990394e27	3446.495472363662	2621.555148739432	8.724995938781817	0.9875630859125372
0.011100292707096907	9.042845972183821e-24	1.1648572990788206e10	1.2690997621990394e27	3446.495472363662	2621.555148739432	8.724995938781817	0.9875630859125372
0.011141752779130397	9.420159705698319e-24	1.1648572990788206e10	1.2690997621990394e27	3446.495472363662	2621.555148739432	8.724995938781817	0.9875630859125372
0.011183367706321216	9.801704762074354e-24	1.1648572990788206e10	1.2690997621990394e27	3446.495472363662	2621.555148739432	8.724995938781817	0.9875630859125372
0.01122513806705996	1.0187529266453477e-23	1.1648572990788206e10	1.2690997621990394e27	3446.495472363662	2621.555148739432	8.724995938781817	0.9875630859125372
0.011267064441897732	1.0577681891594632e-23	1.1648572990788206e10	1.2690997621990394e27	3446.495472363662	2621.555148739432	8.724995938781817	0.9875630859125372
0.011309147413553823	1.0972211864086037e-23	1.1648572990788206e10	1.2690997621990394e27	3446.495472363662	2621.555148739432	8.724995938781817	0.9875630859125372
0.011351387566924198	1.1371168970634334e-23	1.1648572990788206e10	1.2690997621990394e27	3446.495472363662	2621.555148739432	8.724995938781817	0.9875630859125372
0.011393785489089248	1.1774603564417999e-23	1.1648572990788206e10	1.2690997621990394e27	3446.495472363662	2621.555148739432	8.724995938781817	0.9875630859125372
0.011436341769322319	1.2182566571519548e-23	1.1648572990788206e10	1.2690997621990394e27	3446.495472363662	2621.555148739432	8.724995938781817	0.9875630859125372
0.011479056999097528	1.2595109497423683e-23	1.1648572990788206e10	1.2690997621990394e27	3446.495472363662	2621.555148739432	8.724995938781817	0.9875630859125372
0.011521931772098367	1.3012284433595957e-23	1.1648572990788206e10	1.2690997621990394e27	3446.495472363662	2621.555148739432	8.724995938781817	0.9875630859125372
0.011564966684225575	1.3434144064128848e-23	1.1648572990788206e10	1.2690997621990394e27	3446.495472363662	2621.555148739432	8.724995938781817	0.9875630859125372
0.011608162333605784	1.3860741672470068e-23	1.1648572990788206e10	1.2690997621990394e27	3446.495472363662	2621.555148739432	8.724995938781817	0.9875630859125372
0.011651519320599475	1.4292131148220083e-23	1.1648572990788206e10	1.2690997621990394e27	3446.495472363662	2621.555148739432	8.724995938781817	0.9875630859125372
0.011695038247809687	1.4728366994013558e-23	1.1648572990788206e10	1.2690997621990394e27	3446.495472363662	2621.555148739432	8.724995938781817	0.9875630859125372
0.01173871972009002	1.5169504332471527e-23	1.1648572990788206e10	1.2690997621990394e27	3446.495472363662	2621.555148739432	8.724995938781817	0.9875630859125372
0.011782564344553416	1.561559891323962e-23	1.1648572990788206e10	1.2690997621990394e27	3446.495472363662	2621.555148739432	8.724995938781817	0.9875630859125372
0.01182657273058022	1.6066707120098367e-23	1.1648572990788206e10	1.2690997621990394e27	3446.495472363662	2621.555148739432	8.724995938781817	0.9875630859125372
0.011870745489827032	1.6522885978161715e-23	1.1648572990788206e10	1.2690997621990394e27	3446.495472363662	2621.555148739432	8.724995938781817	0.9875630859125372
0.011915083236234818	1.6984193161149057e-23	1.1648572990788206e10	1.2690997621990394e27	3446.495472363662	2621.555148739432	8.724995938781817	0.9875630859125372
0.011959586586037843	1.745068699874777e-23	1.1648572990788206e10	1.2690997621990394e27	3446.495472363662	2621.555148739432	8.724995938781817	0.9875630859125372
0.012004256157771828	1.7922426484050643e-23	1.1648572990788206e10	1.2690997621990394e27	3446.495472363662	2621.555148739432	8.724995938781817	0.9875630859125372
0.012049092572282958	1.8399471281085988e-23	1.1648572990788206e10	1.2690997621990394e27	3446.495472363662	2621.555148739432	8.724995938781817	0.9875630859125372
0.0120940964527361	1.8881881732424403e-23	1.1648572990788206e10	1.2690997621990394e27	3446.495472363662	2621.555148739432	8.724995938781817	0.9875630859125372
0.012139268424623867	1.9369718866880163e-23	1.1648572990788206e10	1.2690997621990394e27	3446.495472363662	2621.555148739432	8.724995938781817	0.9875630859125372
0.012184609115774923	1.9863044407291327e-23	1.1648572990788206e10	1.2690997621990394e27	3446.495472363662	2621.555148739432	8.724995938781817	0.9875630859125372
0.012230119156363092	2.036192077839613e-23	1.1648572990788206e10	1.2690997621990394e27	3446.495472363662	2621.555148739432	8.724995938781817	0.9875630859125372
0.012275799178915725	2.0866411114790237e-23	1.1648572990788206e10	1.2690997621990394e27	3446.495472363662	2621.555148739432	8.724995938781817	0.9875630859125372
0.012321649818322889	2.1376579268982492e-23	1.1648572990788206e10	1.2690997621990394e27	3446.495472363662	2621.555148739432	8.724995938781817	0.9875630859125372
0.012367671711845798	2.1892489819533152e-23	1.1648572990788202e10	1.269099762199039e27	3446.4954723636606	2621.5551487394305	8.724995938781817	0.9875630859125372
0.012413865499126058	2.2414208079292988e-23	1.1648572990788202e10	1.269099762199039e27	3446.4954723636606	2621.5551487394305	8.724995938781817	0.9875630859125372
0.012460231822194195	2.294180010372696e-23	1.1648572990788202e10	1.269099762199039e27	3446.4954723636606	2621.5551487394305	8.724995938781817	0.9875630859125372
0.012506771325478842	2.347533269933941e-23	1.1648572990788202e10	1.269099762199039e27	3446.4954723636606	2621.5551487394305	8.724995938781817	0.9875630859125372
0.012553484655815574	2.401487343218997e-23	1.1648572990788202e10	1.269099762199039e27	3446.4954723636606	2621.5551487394305	8.724995938781817	0.9875630859125372
0.012600372462455931	2.4560490636507722e-23	1.1648572990788202e10	1.269099762199039e27	3446.4954723636606	2621.5551487394305	8.724995938781817	0.9875630859125372
0.012647435397076435	2.5112253423402207e-23	1.1648572990788202e10	1.269099762199039e27	3446.4954723636606	2621.5551487394305	8.724995938781817	0.9875630859125372
0.012694674113787639	2.5670231689673124e-23	1.1648572990788202e10	1.269099762199039e27	3446.4954723636606	2621.5551487394305	8.724995938781817	0.9875630859125372
0.012742089269143239	2.623449612671998e-23	1.1648572990788202e10	1.269099762199039e27	3446.4954723636606	2621.5551487394305	8.724995938781817	0.9875630859125372
0.01278968152214918	2.680511822955189e-23	1.1648572990788202e10	1.269099762199039e27	3446.4954723636606	2621.5551487394305	8.724995938781817	0.9875630859125372
0.012837451534272822	2.738217030589987e-23	1.1648572990788202e10	1.269099762199039e27	3446.4954723636606	2621.5551487394305	8.724995938781817	0.9875630859125372
0.012885399969452142	2.7965725485432136e-23	1.1648572990788202e10	1.269099762199039e27	3446.4954723636606	2621.5551487394305	8.724995938781817	0.9875630859125372
0.012933527494104946	2.8555857729073126e-23	1.1648572990788202e10	1.269099762199039e27	3446.4954723636606	2621.5551487394305	8.724995938781817	0.9875630859125372
0.01298183477713814	2.915264183842863e-23	1.1648572990788202e10	1.269099762199039e27	3446.4954723636606	2621.5551487394305	8.724995938781817	0.9875630859125372
0.01303032248995703	2.9756153465317106e-23	1.1648572990788202e10	1.269099762199039e27	3446.4954723636606	2621.5551487394305	8.724995938781817	0.9875630859125372
0.013078991306474648	3.036646912140888e-23	1.1648572990788202e10	1.269099762199039e27	3446.4954723636606	2621.5551487394305	8.724995938781817	0.9875630859125372
0.013127841903121117	3.098366618797447e-23	1.1648572990788202e10	1.269099762199039e27	3446.4954723636606	2621.5551487394305	8.724995938781817	0.9875630859125372
0.013176874958853063	3.160782292574302e-23	1.1648572990788202e10	1.269099762199039e27	3446.4954723636606	2621.5551487394305	8.724995938781817	0.9875630859125372
0.01322609115516304	3.22390184848724e-23	1.1648572990788202e10	1.269099762199039e27	3446.4954723636606	2621.5551487394305	8.724995938781817	0.9875630859125372
0.013275491176089	3.2877332915031793e-23	1.1648572990788202e10	1.269099762199039e27	3446.4954723636606	2621.5551487394305	8.724995938781817	0.9875630859125372
0.01332507570822382	3.352284717559886e-23	1.1648572990788202e10	1.269099762199039e27	3446.4954723636606	2621.5551487394305	8.724995938781817	0.9875630859125372
0.013374845440724818	3.4175636713960587e-23	1.1648572990788202e10	1.269099762199039e27	3446.4954723636606	2621.5551487394305	8.724995938781817	0.9875630859125372
0.013424801065323351	3.483576880022642e-23	1.1648572990788202e10	1.269099762199039e27	3446.4954723636606	2621.5551487394305	8.724995938781817	0.9875630859125372
0.013474943276334422	3.550332541394461e-23	1.1648572990788202e10	1.269099762199039e27	3446.4954723636606	2621.5551487394305	8.724995938781817	0.9875630859125372
0.01352527277066633	3.617839005902148e-23	1.1648572990788202e10	1.269099762199039e27	3446.4954723636606	2621.5551487394305	8.724995938781817	0.9875630859125372
0.013575790247830356	3.686104717853457e-23	1.1648572990788202e10	1.269099762199039e27	3446.4954723636606	2621.5551487394305	8.724995938781817	0.9875630859125372
0.013626496409950483	3.7551382165295424e-23	1.1648572990788202e10	1.269099762199039e27	3446.4954723636606	2621.5551487394305	8.724995938781817	0.9875630859125372
0.013677391961773165	3.8249481372531527e-23	1.1648572990788202e10	1.269099762199039e27	3446.4954723636606	2621.5551487394305	8.724995938781817	0.9875630859125372
0.013728477610677105	3.895543212468783e-23	1.1648572990788202e10	1.269099762199039e27	3446.4954723636606	2621.5551487394305	8.724995938781817	0.9875630859125372
0.013779754066683105	3.966932272835032e-23	1.1648572990788202e10	1.269099762199039e27	3446.4954723636606	2621.5551487394305	8.724995938781817	0.9875630859125372
0.013831222042463917	4.039124248329194e-23	1.1648572990788202e10	1.269099762199039e27	3446.4954723636606	2621.5551487394305	8.724995938781817	0.9875630859125372
0.013882882253354163	4.1121281693643296e-23	1.1648572990788202e10	1.269099762199039e27	3446.4954723636606	2621.5551487394305	8.724995938781817	0.9875630859125372
0.01393473541736027	4.185953167918851e-23	1.1648572990788202e10	1.269099762199039e27	3446.4954723636606	2621.5551487394305	8.724995938781817	0.9875630859125372
0.013986782255170443	4.2606084786788216e-23	1.1648572990788202e10	1.269099762199039e27	3446.4954723636606	2621.5551487394305	8.724995938781817	0.9875630859125372
0.014039023490164695	4.336103440193137e-23	1.1648572990788202e10	1.269099762199039e27	3446.4954723636606	2621.5551487394305	8.724995938781817	0.9875630859125372
0.014091459848424897	4.412447496041667e-23	1.1648572990788202e10	1.269099762199039e27	3446.4954723636606	2621.5551487394305	8.724995938781817	0.9875630859125372
0.014144092058744862	4.4896501960165225e-23	1.1648572990788202e10	1.269099762199039e27	3446.4954723636606	2621.5551487394305	8.724995938781817	0.9875630859125372
0.014196920852640476	4.567721197316645e-23	1.1648572990788202e10	1.269099762199039e27	3446.4954723636606	2621.5551487394305	8.724995938781817	0.9875630859125372
0.014249946964359878	4.6466702657558265e-23	1.1648572990788202e10	1.269099762199039e27	3446.4954723636606	2621.5551487394305	8.724995938781817	0.9875630859125372
0.014303171130893648	4.726507276984277e-23	1.1648572990788202e10	1.269099762199039e27	3446.4954723636606	2621.5551487394305	8.724995938781817	0.9875630859125372
0.014356594091985062	4.8072422177239744e-23	1.1648572990788202e10	1.269099762199039e27	3446.4954723636606	2621.5551487394305	8.724995938781817	0.9875630859125372
0.014410216590140365	4.88888518701789e-23	1.1648572990788202e10	1.269099762199039e27	3446.4954723636606	2621.5551487394305	8.724995938781817	0.9875630859125372
0.014464039370639097	4.971446397493269e-23	1.1648572990788202e10	1.269099762199039e27	3446.4954723636606	2621.5551487394305	8.724995938781817	0.9875630859125372
0.014518063181544453	5.054936176639116e-23	1.1648572990788202e10	1.269099762199039e27	3446.4954723636606	2621.5551487394305	8.724995938781817	0.9875630859125372
0.014572288773713667	5.139364968098034e-23	1.1648572990788202e10	1.269099762199039e27	3446.4954723636606	2621.5551487394305	8.724995938781817	0.9875630859125372
0.014626716900808467	5.224743332972634e-23	1.1648572990788202e10	1.269099762199039e27	3446.4954723636606	2621.5551487394305	8.724995938781817	0.9875630859125372
0.014681348319305534	5.311081951146593e-23	1.1648572990788202e10	1.269099762199039e27	3446.4954723636606	2621.5551487394305	8.724995938781817	0.9875630859125372
0.014736183788507023	5.398391622620591e-23	1.1648572990788197e10	1.269099762199038e27	3446.4954723636597	2621.5551487394296	8.724995938781815	0.9875630859125372
0.014791224070551116	5.486683268863279e-23	1.1648572990788197e10	1.269099762199038e27	3446.4954723636597	2621.5551487394296	8.724995938781815	0.9875630859125372
0.014846469930422617	5.575967934177426e-23	1.1648572990788197e10	1.269099762199038e27	3446.4954723636597	2621.5551487394296	8.724995938781815	0.9875630859125372
0.014901922135963575	5.666256787081433e-23	1.1648572990788197e10	1.269099762199038e27	3446.4954723636597	2621.5551487394296	8.724995938781815	0.9875630859125372
0.014957581457883964	5.757561121706408e-23	1.1648572990788197e10	1.269099762199038e27	3446.4954723636597	2621.5551487394296	8.724995938781815	0.9875630859125372
0.0150134486697724	5.849892359208926e-23	1.1648572990788197e10	1.269099762199038e27	3446.4954723636597	2621.5551487394296	8.724995938781815	0.9875630859125372
0.015069524548106877	5.94326204919968e-23	1.1648572990788197e10	1.269099762199038e27	3446.4954723636597	2621.5551487394296	8.724995938781815	0.9875630859125372
0.015125809872265571	6.037681871188223e-23	1.1648572990788197e10	1.269099762199038e27	3446.4954723636597	2621.5551487394296	8.724995938781815	0.9875630859125372
0.015182305424537667	6.13316363604393e-23	1.1648572990788197e10	1.269099762199038e27	3446.4954723636597	2621.5551487394296	8.724995938781815	0.9875630859125372
0.01523901199013424	6.229719287473434e-23	1.1648572990788197e10	1.269099762199038e27	3446.4954723636597	2621.5551487394296	8.724995938781815	0.9875630859125372
0.015295930357199157	6.327360903514618e-23	1.1648572990788197e10	1.269099762199038e27	3446.4954723636597	2621.5551487394296	8.724995938781815	0.9875630859125372
0.015353061316820037	6.42610069804746e-23	1.1648572990788197e10	1.269099762199038e27	3446.4954723636597	2621.5551487394296	8.724995938781815	0.9875630859125372
0.015410405663039247	6.525951022321852e-23	1.1648572990788197e10	1.269099762199038e27	3446.4954723636597	2621.5551487394296	8.724995938781815	0.9875630859125372
0.015467964192864933	6.6269243665026e-23	1.1648572990788197e10	1.269099762199038e27	3446.4954723636597	2621.5551487394296	8.724995938781815	0.9875630859125372
0.015525737706282105	6.729033361231809e-23	1.1648572990788197e10	1.269099762199038e27	3446.4954723636597	2621.5551487394296	8.724995938781815	0.9875630859125372
0.01558372700626375	6.832290779208839e-23	1.1648572990788197e10	1.269099762199038e27	3446.4954723636597	2621.5551487394296	8.724995938781815	0.9875630859125372
0.015641932898781994	6.936709536788024e-23	1.1648572990788197e10	1.269099762199038e27	3446.4954723636597	2621.5551487394296	8.724995938781815	0.9875630859125372
0.0157003561928193	7.042302695594345e-23	1.1648572990788197e10	1.269099762199038e27	3446.4954723636597	2621.5551487394296	8.724995938781815	0.9875630859125372
0.015758997700379723	7.14908346415734e-23	1.1648572990788197e10	1.269099762199038e27	3446.4954723636597	2621.5551487394296	8.724995938781815	0.9875630859125372
0.01581785823650018	7.257065199563291e-23	1.1648572990788197e10	1.269099762199038e27	3446.4954723636597	2621.5551487394296	8.724995938781815	0.9875630859125372
