r[m]	M[Msun]	rho[g/cm^3]	P[N/m^2]	n_e[pm^-3]	n_p[pm^-3]	muF_e[MeV]	B
0.010000000000000012	7.180808097364414e-39	8.888529086773988e8	4.107990429899959e25	265.61433264339627	801.2508924094908	3.4465414152653784	0.9947748568398731
0.010038778112648349	2.2090728173809236e-26	8.888529086773988e8	4.107990429899959e25	265.61433264339627	801.2508924094908	3.4465414152653784	0.9947748568398731
0.010077706599498745	4.478695159413306e-26	8.888529086773988e8	4.107990429899959e25	265.61433264339627	801.2508924094908	3.4465414152653784	0.9947748568398731
0.01011678604367397	6.792553697296783e-26	8.888529086773988e8	4.107990429899959e25	265.61433264339627	801.2508924094908	3.4465414152653784	0.9947748568398731
0.010156017030558042	9.13394527580095e-26	8.888529086773988e8	4.107990429899959e25	265.61433264339627	801.2508924094908	3.4465414152653784	0.9947748568398731
0.010195400147804984	1.1485770551866057e-25	8.888529086773988e8	4.107990429899959e25	265.61433264339627	801.2508924094908	3.4465414152653784	0.9947748568398731
0.010234935985347629	1.3830527543847473e-25	8.888529086773988e8	4.107990429899959e25	265.61433264339627	801.2508924094908	3.4465414152653784	0.9947748568398731
0.010274625135406504	1.6194963535882086e-25	8.888529086773988e8	4.107990429899959e25	265.61433264339627	801.2508924094908	3.4465414152653784	0.9947748568398731
0.01031446819249853	1.8625134837775668e-25	8.888529086773988e8	4.107990429899959e25	265.61433264339627	801.2508924094908	3.4465414152653784	0.9947748568398731
0.01035446575344617	2.110362710716689e-25	8.888529086773988e8	4.107990429899959e25	265.61433264339627	801.2508924094908	3.4465414152653784	0.9947748568398731
0.010394618417386217	2.361210884144837e-25	8.888529086773988e8	4.107990429899959e25	265.61433264339627	801.2508924094908	3.4465414152653784	0.9947748568398731
0.010434926785778807	2.6131813743330075e-25	8.888529086773988e8	4.107990429899959e25	265.61433264339627	801.2508924094908	3.4465414152653784	0.9947748568398731
0.010475391462416415	2.8643533641519444e-25	8.888529086773988e8	4.107990429899959e25	265.61433264339627	801.2508924094908	3.4465414152653784	0.9947748568398731
0.010516013053432917	3.1182231039631156e-25	8.888529086773988e8	4.107990429899959e25	265.61433264339627	801.2508924094908	3.4465414152653784	0.9947748568398731
0.010556792167312657	3.3800823648160356e-25	8.888529086773988e8	4.107990429899959e25	265.61433264339627	801.2508924094908	3.4465414152653784	0.9947748568398731
0.010597729414899571	3.648999182355212e-25	8.888529086773988e8	4.107990429899959e25	265.61433264339627	801.2508924094908	3.4465414152653784	0.9947748568398731
0.01063882540940633	3.9240040457434933e-25	8.888529086773988e8	4.107990429899959e25	265.61433264339627	801.2508924094908	3.4465414152653784	0.9947748568398731
0.010680080766423525	4.204103747681297e-25	8.888529086773988e8	4.107990429899959e25	265.61433264339627	801.2508924094908	3.4465414152653784	0.9947748568398731
0.010721496103928897	4.4882809952258205e-25	8.888529086773988e8	4.107990429899959e25	265.61433264339627	801.2508924094908	3.4465414152653784	0.9947748568398731
0.010763072042296585	4.7754940151280665e-25	8.888529086773988e8	4.107990429899959e25	265.61433264339627	801.2508924094908	3.4465414152653784	0.9947748568398731
0.010804809204306418	5.064676153616487e-25	8.888529086773988e8	4.107990429899959e25	265.61433264339627	801.2508924094908	3.4465414152653784	0.9947748568398731
0.010846708215153301	5.354735470555036e-25	8.888529086773988e8	4.107990429899959e25	265.61433264339627	801.2508924094908	3.4465414152653784	0.9947748568398731
0.01088876970245639	5.6445543279001425e-25	8.888529086773988e8	4.107990429899959e25	265.61433264339627	801.2508924094908	3.4465414152653784	0.9947748568398731
0.010930994296268755	5.932988972387412e-25	8.888529086773988e8	4.107990429899959e25	265.61433264339627	801.2508924094908	3.4465414152653784	0.9947748568398731
0.010973382629086658	6.220155178153853e-25	8.888529086773988e8	4.107990429899959e25	265.61433264339627	801.2508924094908	3.4465414152653784	0.9947748568398731
0.011015935335859062	6.51487735809907e-25	8.888529086773988e8	4.107990429899959e25	265.61433264339627	801.2508924094908	3.4465414152653784	0.9947748568398731
0.011058653053997138	6.818139645346747e-25	8.888529086773988e8	4.107990429899959e25	265.61433264339627	801.2508924094908	3.4465414152653784	0.9947748568398731
0.011101536423383816	7.128793765348965e-25	8.888529086773988e8	4.107990429899959e25	265.61433264339627	801.2508924094908	3.4465414152653784	0.9947748568398731
0.011144586086383376	7.445663342268759e-25	8.888529086773988e8	4.107990429899959e25	265.61433264339627	801.2508924094908	3.4465414152653784	0.9947748568398731
0.011187802687851063	7.7675434372745655e-25	8.888529086773988e8	4.107990429899959e25	265.61433264339627	801.2508924094908	3.4465414152653784	0.9947748568398731
0.01123118687514275	8.093200080329997e-25	8.888529086773988e8	4.107990429899959e25	265.61433264339627	801.2508924094908	3.4465414152653784	0.9947748568398731
0.01127473929812463	8.421369795393832e-25	8.888529086773988e8	4.107990429899959e25	265.61433264339627	801.2508924094908	3.4465414152653784	0.9947748568398731
0.011318460609182963	8.750759118944822e-25	8.888529086773988e8	4.107990429899959e25	265.61433264339627	801.2508924094908	3.4465414152653784	0.9947748568398731
0.011362351463233831	9.080044111743332e-25	8.888529086773988e8	4.107990429899959e25	265.61433264339627	801.2508924094908	3.4465414152653784	0.9947748568398731
0.011406412517733005	9.407869863743068e-25	8.888529086773988e8	4.107990429899959e25	265.61433264339627	801.2508924094908	3.4465414152653784	0.9947748568398731
0.01145064443268561	9.733560687476278e-25	8.888529086773988e8	4.107990429899959e25	265.61433264339627	801.2508924094908	3.4465414152653784	0.9947748568398731
0.011495047870656284	1.0062259942565005e-24	8.888529086773988e8	4.107990429899959e25	265.61433264339627	801.2508924094908	3.4465414152653784	0.9947748568398731
0.011539623496778919	1.0395311844697208e-24	8.888529086773988e8	4.107990429899959e25	265.61433264339627	801.2508924094908	3.4465414152653784	0.9947748568398731
0.01158437197876667	1.0732757190811869e-24	8.888529086773988e8	4.107990429899959e25	265.61433264339627	801.2508924094908	3.4465414152653784	0.9947748568398731
0.011629293986921956	1.107463712191086e-24	8.888529086773988e8	4.107990429899959e25	265.61433264339627	801.2508924094908	3.4465414152653784	0.9947748568398731
0.011674390194146504	1.1420993125837604e-24	8.888529086773988e8	4.107990429899959e25	265.61433264339627	801.2508924094908	3.4465414152653784	0.9947748568398731
0.011719661275951431	1.177186704007746e-24	8.888529086773988e8	4.107990429899959e25	265.61433264339627	801.2508924094908	3.4465414152653784	0.9947748568398731
0.011765107910467353	1.2127301054580292e-24	8.888529086773988e8	4.107990429899959e25	265.61433264339627	801.2508924094908	3.4465414152653784	0.9947748568398731
0.011810730778454548	1.2487337714605487e-24	8.888529086773988e8	4.107990429899959e25	265.61433264339627	801.2508924094908	3.4465414152653784	0.9947748568398731
0.011856530563313155	1.2852019923589515e-24	8.888529086773988e8	4.107990429899959e25	265.61433264339627	801.2508924094908	3.4465414152653784	0.9947748568398731
0.011902507951093417	1.3221390946036047e-24	8.888529086773988e8	4.107990429899959e25	265.61433264339627	801.2508924094908	3.4465414152653784	0.9947748568398731
0.011948663630505943	1.3595494410429091e-24	8.888529086773988e8	4.107990429899959e25	265.61433264339627	801.2508924094908	3.4465414152653784	0.9947748568398731
0.011994998292932029	1.3974374312168943e-24	8.888529086773988e8	4.107990429899959e25	265.61433264339627	801.2508924094908	3.4465414152653784	0.9947748568398731
0.012041512632434071	1.4358075016532197e-24	8.888529086773988e8	4.107990429899959e25	265.61433264339627	801.2508924094908	3.4465414152653784	0.9947748568398731
0.012088207345765762	1.4746641261652645e-24	8.888529086773988e8	4.107990429899959e25	265.61433264339627	801.2508924094908	3.4465414152653784	0.9947748568398731
0.012135083132382818	1.5140118161530288e-24	8.888529086773988e8	4.107990429899959e25	265.61433264339627	801.2508924094908	3.4465414152653784	0.9947748568398731
0.012182140694453265	1.5538551209059693e-24	8.888529086773988e8	4.107990429899959e25	265.61433264339627	801.2508924094908	3.4465414152653784	0.9947748568398731
0.012229380736868007	1.5941986279084624e-24	8.888529086773988e8	4.107990429899959e25	265.61433264339627	801.2508924094908	3.4465414152653784	0.9947748568398731
0.012276803967251376	1.6350469631476271e-24	8.888529086773988e8	4.107990429899959e25	265.61433264339627	801.2508924094908	3.4465414152653784	0.9947748568398731
0.012324411095971738	1.6764047914235893e-24	8.888529086773988e8	4.107990429899959e25	265.61433264339627	801.2508924094908	3.4465414152653784	0.9947748568398731
0.012372202836152141	1.7182768166622034e-24	8.888529086773988e8	4.107990429899959e25	265.61433264339627	801.2508924094908	3.4465414152653784	0.9947748568398731
0.012420179903680979	1.760667782230226e-24	8.888529086773988e8	4.107990429899959e25	265.61433264339627	801.2508924094908	3.4465414152653784	0.9947748568398731
0.012468343017222735	1.8035824712530223e-24	8.888529086773988e8	4.107990429899959e25	265.61433264339627	801.2508924094908	3.4465414152653784	0.9947748568398731
0.012516692898228732	1.847025706934739e-24	8.888529086773988e8	4.107990429899959e25	265.61433264339627	801.2508924094908	3.4465414152653784	0.9947748568398731
0.01256523027094795	1.8910023528810444e-24	8.888529086773988e8	4.107990429899959e25	265.61433264339627	801.2508924094908	3.4465414152653784	0.9947748568398731
0.01261395586243786	1.9355173134243905e-24	8.888529086773988e8	4.107990429899959e25	265.61433264339627	801.2508924094908	3.4465414152653784	0.9947748568398731
0.01266287040257539	1.9805755339519347e-24	8.888529086773988e8	4.107990429899959e25	265.61433264339627	801.2508924094908	3.4465414152653784	0.9947748568398731
0.012711974624067628	2.0261820012357618e-24	8.888529086773988e8	4.107990429899959e25	265.61433264339627	801.2508924094908	3.4465414152653784	0.9947748568398731
0.012761269262463118	2.0723417437662385e-24	8.888529086773988e8	4.107990429899959e25	265.61433264339627	801.2508924094908	3.4465414152653784	0.9947748568398731
0.012810755056162674	2.119059832087508e-24	8.888529086773988e8	4.107990429899959e25	265.61433264339627	801.2508924094908	3.4465414152653784	0.9947748568398731
0.012860432746430488	2.1663413791358774e-24	8.888529086773988e8	4.107990429899959e25	265.61433264339627	801.2508924094908	3.4465414152653784	0.9947748568398731
0.012910303077405233	2.214191540580813e-24	8.888529086773988e8	4.107990429899959e25	265.61433264339627	801.2508924094908	3.4465414152653784	0.9947748568398731
0.012960366796111214	2.262615515168673e-24	8.888529086773988e8	4.107990429899959e25	265.61433264339627	801.2508924094908	3.4465414152653784	0.9947748568398731
0.01301062465246955	2.3116185450691142e-24	8.888529086773988e8	4.107990429899959e25	265.61433264339627	801.2508924094908	3.4465414152653784	0.9947748568398731
0.013061077399309421	2.3612059162242572e-24	8.888529086773988e8	4.107990429899959e25	265.61433264339627	801.2508924094908	3.4465414152653784	0.9947748568398731
0.01311172579237933	2.411382958700607e-24	8.888529086773988e8	4.107990429899959e25	265.61433264339627	801.2508924094908	3.4465414152653784	0.9947748568398731
0.013162570590358429	2.4621550470437417e-24	8.888529086773988e8	4.107990429899959e25	265.61433264339627	801.2508924094908	3.4465414152653784	0.9947748568398731
0.01321361255486789	2.5135276006358345e-24	8.888529086773988e8	4.107990429899959e25	265.61433264339627	801.2508924094908	3.4465414152653784	0.9947748568398731
0.013264852450482307	2.565506084055963e-24	8.888529086773988e8	4.107990429899959e25	265.61433264339627	801.2508924094908	3.4465414152653784	0.9947748568398731
0.013316291044741146	2.6180960074432848e-24	8.888529086773988e8	4.107990429899959e25	265.61433264339627	801.2508924094908	3.4465414152653784	0.9947748568398731
0.013367929108160303	2.671302926863136e-24	8.888529086773988e8	4.107990429899959e25	265.61433264339627	801.2508924094908	3.4465414152653784	0.9947748568398731
0.013419767414243425	2.7251324446757387e-24	8.888529086773988e8	4.107990429899959e25	265.61433264339627	801.2508924094908	3.4465414152653784	0.9947748568398731
0.013471806739493828	2.7795902099083757e-24	8.888529086773988e8	4.107990429899959e25	265.61433264339627	801.2508924094908	3.4465414152653784	0.9947748568398731
0.0135240478634259	2.834681918629955e-24	8.888529086773988e8	4.107990429899959e25	265.61433264339627	801.2508924094908	3.4465414152653784	0.9947748568398731
0.013576491568576845	2.890413314328811e-24	8.888529086773988e8	4.107990429899959e25	265.61433264339627	801.2508924094908	3.4465414152653784	0.9947748568398731
0.013629138640518393	2.9467901882934075e-24	8.888529086773988e8	4.107990429899959e25	265.61433264339627	801.2508924094908	3.4465414152653784	0.9947748568398731
0.013681989867868574	3.0038183799960857e-24	8.888529086773988e8	4.107990429899959e25	265.61433264339627	801.2508924094908	3.4465414152653784	0.9947748568398731
0.013735046042303536	3.061503777479824e-24	8.888529086773988e8	4.107990429899959e25	265.61433264339627	801.2508924094908	3.4465414152653784	0.9947748568398731
0.013788307958569392	3.119852317748034e-24	8.888529086773988e8	4.107990429899959e25	265.61433264339627	801.2508924094908	3.4465414152653784	0.9947748568398731
0.01384177641449413	3.1788699871574622e-24	8.888529086773988e8	4.107990429899959e25	265.61433264339627	801.2508924094908	3.4465414152653784	0.9947748568398731
0.013895452210999564	3.2385628218141726e-24	8.888529086773988e8	4.107990429899959e25	265.61433264339627	801.2508924094908	3.4465414152653784	0.9947748568398731
0.013949336152113339	3.2989369079726754e-24	8.888529086773988e8	4.107990429899959e25	265.61433264339627	801.2508924094908	3.4465414152653784	0.9947748568398731
0.014003429044980956	3.359998382438175e-24	8.888529086773988e8	4.107990429899959e25	265.61433264339627	801.2508924094908	3.4465414152653784	0.9947748568398731
0.01405773169987794	3.421753432972086e-24	8.888529086773988e8	4.107990429899959e25	265.61433264339627	801.2508924094908	3.4465414152653784	0.9947748568398731
0.01411224493022174	3.484208298700415e-24	8.888529086773988e8	4.107990429899959e25	265.61433264339627	801.2508924094908	3.4465414152653784	0.9947748568398731
0.014166969552584245	3.547369270526005e-24	8.888529086773988e8	4.107990429899959e25	265.61433264339627	801.2508924094908	3.4465414152653784	0.9947748568398731
0.014221906386703814	3.611242691543403e-24	8.888529086773988e8	4.107990429899959e25	265.61433264339627	801.2508924094908	3.4465414152653784	0.9947748568398731
0.014277056255497585	3.6758349574573024e-24	8.888529086773988e8	4.107990429899959e25	265.61433264339627	801.2508924094908	3.4465414152653784	0.9947748568398731
0.01433241998507382	3.7411525170042385e-24	8.888529086773988e8	4.107990429899959e25	265.61433264339627	801.2508924094908	3.4465414152653784	0.9947748568398731
0.014387998404744267	3.807201872377607e-24	8.888529086773988e8	4.107990429899959e25	265.61433264339627	801.2508924094908	3.4465414152653784	0.9947748568398731
0.014443792347036594	3.873989579656033e-24	8.888529086773988e8	4.107990429899959e25	265.61433264339627	801.2508924094908	3.4465414152653784	0.9947748568398731
0.014499802647706854	3.94152224923512e-24	8.888529086773988e8	4.107990429899959e25	265.61433264339627	801.2508924094908	3.4465414152653784	0.9947748568398731
0.014556030145751997	4.009806546262595e-24	8.888529086773988e8	4.107990429899959e25	265.61433264339627	801.2508924094908	3.4465414152653784	0.9947748568398731
0.014612475683422456	4.0788491910769214e-24	8.888529086773988e8	4.107990429899959e25	265.61433264339627	801.2508924094908	3.4465414152653784	0.9947748568398731
0.014669140106234739	4.148656959649306e-24	8.888529086773988e8	4.107990429899959e25	265.61433264339627	801.2508924094908	3.4465414152653784	0.9947748568398731
0.014726024262984121	4.2192366840292714e-24	8.888529086773988e8	4.107990429899959e25	265.61433264339627	801.2508924094908	3.4465414152653784	0.9947748568398731
0.014783129005757338	4.290595252793666e-24	8.888529086773988e8	4.107990429899959e25	265.61433264339627	801.2508924094908	3.4465414152653784	0.9947748568398731
0.014840455189945414	4.362739611499348e-24	8.888529086773988e8	4.107990429899959e25	265.61433264339627	801.2508924094908	3.4465414152653784	0.9947748568398731
0.014898003674256245	4.43567676313903e-24	8.888529086773988e8	4.107990429899959e25	265.61433264339627	801.2508924094908	3.4465414152653784	0.9947748568398731
0.01495577532072781	4.50941376860148e-24	8.888529086773988e8	4.107990429899959e25	265.61433264339627	801.2508924094908	3.4465414152653784	0.9947748568398731
0.015013770994740851	4.5839577471346076e-24	8.888529086773988e8	4.107990429899959e25	265.61433264339627	801.2508924094908	3.4465414152653784	0.9947748568398731
0.015071991565031893	4.659315876812547e-24	8.888529086773988e8	4.107990429899959e25	265.61433264339627	801.2508924094908	3.4465414152653784	0.9947748568398731
0.015130437903706252	4.735495395006386e-24	8.888529086773988e8	4.107990429899959e25	265.61433264339627	801.2508924094908	3.4465414152653784	0.9947748568398731
0.015189110886251113	4.812503598858587e-24	8.888529086773988e8	4.107990429899959e25	265.61433264339627	801.2508924094908	3.4465414152653784	0.9947748568398731
0.015248011391548627	4.8903478457611254e-24	8.888529086773988e8	4.107990429899959e25	265.61433264339627	801.2508924094908	3.4465414152653784	0.9947748568398731
0.015307140301889087	4.969035553837444e-24	8.888529086773988e8	4.107990429899959e25	265.61433264339627	801.2508924094908	3.4465414152653784	0.9947748568398731
0.015366498502984145	5.048574202428176e-24	8.888529086773988e8	4.107990429899959e25	265.61433264339627	801.2508924094908	3.4465414152653784	0.9947748568398731
0.015426086883980067	5.128971332580678e-24	8.888529086773988e8	4.107990429899959e25	265.61433264339627	801.2508924094908	3.4465414152653784	0.9947748568398731
0.015485906337471069	5.210234547542471e-24	8.888529086773988e8	4.107990429899959e25	265.61433264339627	801.2508924094908	3.4465414152653784	0.9947748568398731
0.015545957759512676	5.292371513258529e-24	8.888529086773988e8	4.107990429899959e25	265.61433264339627	801.2508924094908	3.4465414152653784	0.9947748568398731
0.015606242049635143	5.375389958872493e-24	8.888529086773988e8	4.107990429899959e25	265.61433264339627	801.2508924094908	3.4465414152653784	0.9947748568398731
0.015666760110857006	5.459297677231946e-24	8.888529086773988e8	4.107990429899959e25	265.61433264339627	801.2508924094908	3.4465414152653784	0.9947748568398731
0.015727512849698335	5.5441025253971844e-24	8.888529086773988e8	4.107990429899959e25	265.61433264339627	801.2508924094908	3.4465414152653784	0.9947748568398731
0.015788501176194715	5.629812425154931e-24	8.888529086773988e8	4.107990429899959e25	265.61433264339627	801.2508924094908	3.4465414152653784	0.9947748568398731
0.015849726003910602	5.7164353635351635e-24	8.888529086773988e8	4.107990429899959e25	265.61433264339627	801.2508924094908	3.4465414152653784	0.9947748568398731
0.015911188249953096	5.8039793933325056e-24	8.888529086773988e8	4.107990429899959e25	265.61433264339627	801.2508924094908	3.4465414152653784	0.9947748568398731
0.015972888834985655	5.8924526336315844e-24	8.888529086773988e8	4.107990429899959e25	265.61433264339627	801.2508924094908	3.4465414152653784	0.9947748568398731
0.016034828683241898	5.9818632703365586e-24	8.888529086773988e8	4.107990429899959e25	265.61433264339627	801.2508924094908	3.4465414152653784	0.9947748568398731
0.016097008722539455	6.0722195567048336e-24	8.888529086773988e8	4.107990429899959e25	265.61433264339627	801.2508924094908	3.4465414152653784	0.9947748568398731
0.016159429884293846	6.163529813884913e-24	8.888529086773988e8	4.107990429899959e25	265.61433264339627	801.2508924094908	3.4465414152653784	0.9947748568398731
