r[m]	M[Msun]	rho[g/cm^3]	P[N/m^2]	n_e[pm^-3]	n_p[pm^-3]	muF_e[MeV]	B
0.009999999999999985	-2.689441234967945e-39	2.9161086016632533e8	9.07128650269162e24	86.64231503359062	87.65901288102567	2.23837410804848	0.9965233284369494
0.010039322532041185	7.356571404005995e-27	2.9161086016632533e8	9.07128650269162e24	86.64231503359062	87.65901288102567	2.23837410804848	0.9965233284369494
0.010078799690234957	1.4947786620469353e-26	2.9161086016632533e8	9.07128650269162e24	86.64231503359062	87.65901288102567	2.23837410804848	0.9965233284369494
0.010118432082610568	2.2746872645651452e-26	2.9161086016632533e8	9.07128650269162e24	86.64231503359062	87.65901288102567	2.23837410804848	0.9965233284369494
0.010158220319588043	3.072638575244022e-26	2.9161086016632533e8	9.07128650269162e24	86.64231503359062	87.65901288102567	2.23837410804848	0.9965233284369494
0.010198165013987901	3.885820028526092e-26	2.9161086016632533e8	9.07128650269162e24	86.64231503359062	87.65901288102567	2.23837410804848	0.9965233284369494
0.010238266781040258	4.711349729457843e-26	2.9161086016632533e8	9.07128650269162e24	86.64231503359062	87.65901288102567	2.23837410804848	0.9965233284369494
0.010278526238394639	5.546275300914681e-26	2.9161086016632533e8	9.07128650269162e24	86.64231503359062	87.65901288102567	2.23837410804848	0.9965233284369494
0.010318944006129156	6.3875727143565e-26	2.9161086016632533e8	9.07128650269162e24	86.64231503359062	87.65901288102567	2.23837410804848	0.9965233284369494
0.010359520706760392	7.232145103925358e-26	2.9161086016632533e8	9.07128650269162e24	86.64231503359062	87.65901288102567	2.23837410804848	0.9965233284369494
0.010400256965252657	8.076821563636436e-26	2.9161086016632533e8	9.07128650269162e24	86.64231503359062	87.65901288102567	2.23837410804848	0.9965233284369494
0.010441153409027943	8.918355927466521e-26	2.9161086016632533e8	9.07128650269162e24	86.64231503359062	87.65901288102567	2.23837410804848	0.9965233284369494
0.010482210667975259	9.753646875309657e-26	2.9161086016632533e8	9.07128650269162e24	86.64231503359062	87.65901288102567	2.23837410804848	0.9965233284369494
0.010523429374460666	1.0602834676859604e-25	2.9161086016632533e8	9.07128650269162e24	86.64231503359062	87.65901288102567	2.23837410804848	0.9965233284369494
0.010564810163336678	1.1478490061637135e-25	2.9161086016632533e8	9.07128650269162e24	86.64231503359062	87.65901288102567	2.23837410804848	0.9965233284369494
0.010606353671952378	1.2377365215951182e-25	2.9161086016632533e8	9.07128650269162e24	86.64231503359062	87.65901288102567	2.23837410804848	0.9965233284369494
0.010648060540162901	1.3296131286508573e-25	2.9161086016632533e8	9.07128650269162e24	86.64231503359062	87.65901288102567	2.23837410804848	0.9965233284369494
0.010689931410339621	1.4231377028095578e-25	2.9161086016632533e8	9.07128650269162e24	86.64231503359062	87.65901288102567	2.23837410804848	0.9965233284369494
0.010731966927379709	1.5179607431912083e-25	2.9161086016632533e8	9.07128650269162e24	86.64231503359062	87.65901288102567	2.23837410804848	0.9965233284369494
0.010774167738716407	1.6137242334330692e-25	2.9161086016632533e8	9.07128650269162e24	86.64231503359062	87.65901288102567	2.23837410804848	0.9965233284369494
0.010816534494328657	1.710061500579175e-25	2.9161086016632533e8	9.07128650269162e24	86.64231503359062	87.65901288102567	2.23837410804848	0.9965233284369494
0.010859067846751457	1.8065970719602585e-25	2.9161086016632533e8	9.07128650269162e24	86.64231503359062	87.65901288102567	2.23837410804848	0.9965233284369494
0.010901768451085557	1.9029465300343582e-25	2.9161086016632533e8	9.07128650269162e24	86.64231503359062	87.65901288102567	2.23837410804848	0.9965233284369494
0.010944636965007913	1.998716365164418e-25	2.9161086016632533e8	9.07128650269162e24	86.64231503359062	87.65901288102567	2.23837410804848	0.9965233284369494
0.010987674048781452	2.094780696822151e-25	2.9161086016632533e8	9.07128650269162e24	86.64231503359062	87.65901288102567	2.23837410804848	0.9965233284369494
0.011030880365265599	2.19405290608094e-25	2.9161086016632533e8	9.07128650269162e24	86.64231503359062	87.65901288102567	2.23837410804848	0.9965233284369494
0.011074256579926134	2.2965063335579937e-25	2.9161086016632533e8	9.07128650269162e24	86.64231503359062	87.65901288102567	2.23837410804848	0.9965233284369494
0.011117803360845797	2.4019583454330817e-25	2.9161086016632533e8	9.07128650269162e24	86.64231503359062	87.65901288102567	2.23837410804848	0.9965233284369494
0.011161521378734213	2.510221480425616e-25	2.9161086016632533e8	9.07128650269162e24	86.64231503359062	87.65901288102567	2.23837410804848	0.9965233284369494
0.011205411306938596	2.621103367975887e-25	2.9161086016632533e8	9.07128650269162e24	86.64231503359062	87.65901288102567	2.23837410804848	0.9965233284369494
0.011249473821453741	2.734406645246948e-25	2.9161086016632533e8	9.07128650269162e24	86.64231503359062	87.65901288102567	2.23837410804848	0.9965233284369494
0.011293709600932818	2.8499288729351164e-25	2.9161086016632533e8	9.07128650269162e24	86.64231503359062	87.65901288102567	2.23837410804848	0.9965233284369494
0.01133811932669744	2.9674624498694697e-25	2.9161086016632533e8	9.07128650269162e24	86.64231503359062	87.65901288102567	2.23837410804848	0.9965233284369494
0.011382703682748543	3.0867945263882233e-25	2.9161086016632533e8	9.07128650269162e24	86.64231503359062	87.65901288102567	2.23837410804848	0.9965233284369494
0.011427463355776532	3.2077069164717125e-25	2.9161086016632533e8	9.07128650269162e24	86.64231503359062	87.65901288102567	2.23837410804848	0.9965233284369494
0.01147239903517225	3.329976008619579e-25	2.9161086016632533e8	9.07128650269162e24	86.64231503359062	87.65901288102567	2.23837410804848	0.9965233284369494
0.011517511413037203	3.45337267545141e-25	2.9161086016632533e8	9.07128650269162e24	86.64231503359062	87.65901288102567	2.23837410804848	0.9965233284369494
0.011562801184194607	3.577662182018099e-25	2.9161086016632533e8	9.07128650269162e24	86.64231503359062	87.65901288102567	2.23837410804848	0.9965233284369494
0.011608269046199712	3.7026040928026284e-25	2.9161086016632533e8	9.07128650269162e24	86.64231503359062	87.65901288102567	2.23837410804848	0.9965233284369494
0.011653915699350918	3.827952177397212e-25	2.9161086016632533e8	9.07128650269162e24	86.64231503359062	87.65901288102567	2.23837410804848	0.9965233284369494
0.011699741846700236	3.9534543148351233e-25	2.9161086016632533e8	9.07128650269162e24	86.64231503359062	87.65901288102567	2.23837410804848	0.9965233284369494
0.011745748194064253	4.078852396562853e-25	2.9161086016632533e8	9.07128650269162e24	86.64231503359062	87.65901288102567	2.23837410804848	0.9965233284369494
0.011791935450035148	4.203882228033161e-25	2.9161086016632533e8	9.07128650269162e24	86.64231503359062	87.65901288102567	2.23837410804848	0.9965233284369494
0.011838304325991278	4.3282734288996975e-25	2.9161086016632533e8	9.07128650269162e24	86.64231503359062	87.65901288102567	2.23837410804848	0.9965233284369494
0.011884855536108506	4.4517493317978e-25	2.9161086016632533e8	9.07128650269162e24	86.64231503359062	87.65901288102567	2.23837410804848	0.9965233284369494
0.011931589797370823	4.574569329290356e-25	2.9161086016632533e8	9.07128650269162e24	86.64231503359062	87.65901288102567	2.23837410804848	0.9965233284369494
0.011978507829581781	4.700810642820415e-25	2.9161086016632533e8	9.07128650269162e24	86.64231503359062	87.65901288102567	2.23837410804848	0.9965233284369494
0.012025610355375181	4.831165679776926e-25	2.9161086016632533e8	9.07128650269162e24	86.64231503359062	87.65901288102567	2.23837410804848	0.9965233284369494
0.012072898100226605	4.965377839637502e-25	2.9161086016632533e8	9.07128650269162e24	86.64231503359062	87.65901288102567	2.23837410804848	0.9965233284369494
0.012120371792464186	5.103183795254979e-25	2.9161086016632533e8	9.07128650269162e24	86.64231503359062	87.65901288102567	2.23837410804848	0.9965233284369494
0.012168032163280232	5.244313379095022e-25	2.9161086016632533e8	9.07128650269162e24	86.64231503359062	87.65901288102567	2.23837410804848	0.9965233284369494
0.012215879946742074	5.388489467835598e-25	2.9161086016632533e8	9.07128650269162e24	86.64231503359062	87.65901288102567	2.23837410804848	0.9965233284369494
0.012263915879803798	5.535427865311329e-25	2.9161086016632533e8	9.07128650269162e24	86.64231503359062	87.65901288102567	2.23837410804848	0.9965233284369494
0.012312140702317165	5.684837183775754e-25	2.9161086016632533e8	9.07128650269162e24	86.64231503359062	87.65901288102567	2.23837410804848	0.9965233284369494
0.012360555157043427	5.836418723464232e-25	2.9161086016632533e8	9.07128650269162e24	86.64231503359062	87.65901288102567	2.23837410804848	0.9965233284369494
0.012409159989664362	5.989866350430004e-25	2.9161086016632533e8	9.07128650269162e24	86.64231503359062	87.65901288102567	2.23837410804848	0.9965233284369494
0.01245795594879416	6.144866372635446e-25	2.9161086016632533e8	9.07128650269162e24	86.64231503359062	87.65901288102567	2.23837410804848	0.9965233284369494
0.01250694378599054	6.301097414270379e-25	2.9161086016632533e8	9.07128650269162e24	86.64231503359062	87.65901288102567	2.23837410804848	0.9965233284369494
0.012556124255766753	6.458230288279154e-25	2.9161086016632533e8	9.07128650269162e24	86.64231503359062	87.65901288102567	2.23837410804848	0.9965233284369494
0.012605498115602768	6.615927867067529e-25	2.9161086016632533e8	9.07128650269162e24	86.64231503359062	87.65901288102567	2.23837410804848	0.9965233284369494
0.012655066125957376	6.773844951370612e-25	2.9161086016632533e8	9.07128650269162e24	86.64231503359062	87.65901288102567	2.23837410804848	0.9965233284369494
0.01270482905027947	6.931628137252206e-25	2.9161086016632533e8	9.07128650269162e24	86.64231503359062	87.65901288102567	2.23837410804848	0.9965233284369494
0.01275478765502023	7.088915681216205e-25	2.9161086016632533e8	9.07128650269162e24	86.64231503359062	87.65901288102567	2.23837410804848	0.9965233284369494
0.012804942709644503	7.245337363399817e-25	2.9161086016632533e8	9.07128650269162e24	86.64231503359062	87.65901288102567	2.23837410804848	0.9965233284369494
0.012855294986643076	7.400514348828634e-25	2.9161086016632533e8	9.07128650269162e24	86.64231503359062	87.65901288102567	2.23837410804848	0.9965233284369494
0.01290584526154416	7.555258165170713e-25	2.9161086016632533e8	9.07128650269162e24	86.64231503359062	87.65901288102567	2.23837410804848	0.9965233284369494
0.012956594312925744	7.712172607674899e-25	2.9161086016632533e8	9.07128650269162e24	86.64231503359062	87.65901288102567	2.23837410804848	0.9965233284369494
0.013007542922427177	7.871388537181938e-25	2.9161086016632533e8	9.07128650269162e24	86.64231503359062	87.65901288102567	2.23837410804848	0.9965233284369494
0.01305869187476162	8.032928277211936e-25	2.9161086016632533e8	9.07128650269162e24	86.64231503359062	87.65901288102567	2.23837410804848	0.9965233284369494
0.013110041957727712	8.196814343660744e-25	2.9161086016632533e8	9.07128650269162e24	86.64231503359062	87.65901288102567	2.23837410804848	0.9965233284369494
0.013161593962222138	8.36306944638201e-25	2.9161086016632533e8	9.07128650269162e24	86.64231503359062	87.65901288102567	2.23837410804848	0.9965233284369494
0.01321334868225136	8.531716490779153e-25	2.9161086016632533e8	9.07128650269162e24	86.64231503359062	87.65901288102567	2.23837410804848	0.9965233284369494
0.013265306914944295	8.702778579412976e-25	2.9161086016632533e8	9.07128650269162e24	86.64231503359062	87.65901288102567	2.23837410804848	0.9965233284369494
0.013317469460564167	8.876279013619397e-25	2.9161086016632533e8	9.07128650269162e24	86.64231503359062	87.65901288102567	2.23837410804848	0.9965233284369494
0.013369837122521242	9.052241295142948e-25	2.9161086016632533e8	9.07128650269162e24	86.64231503359062	87.65901288102567	2.23837410804848	0.9965233284369494
0.013422410707384785	9.23068912778059e-25	2.9161086016632533e8	9.07128650269162e24	86.64231503359062	87.65901288102567	2.23837410804848	0.9965233284369494
0.013475191024895914	9.411646419041691e-25	2.9161086016632533e8	9.07128650269162e24	86.64231503359062	87.65901288102567	2.23837410804848	0.9965233284369494
0.013528178887979634	9.595137281818264e-25	2.9161086016632533e8	9.07128650269162e24	86.64231503359062	87.65901288102567	2.23837410804848	0.9965233284369494
0.013581375112757803	9.781186036071838e-25	2.9161086016632533e8	9.07128650269162e24	86.64231503359062	87.65901288102567	2.23837410804848	0.9965233284369494
0.0136347805185613	9.969817210530724e-25	2.9161086016632533e8	9.07128650269162e24	86.64231503359062	87.65901288102567	2.23837410804848	0.9965233284369494
0.013688395927942831	1.0161055544403172e-24	2.9161086016632533e8	9.07128650269162e24	86.64231503359062	87.65901288102567	2.23837410804848	0.9965233284369494
0.013742222166689749	1.0354925989104078e-24	2.9161086016632533e8	9.07128650269162e24	86.64231503359062	87.65901288102567	2.23837410804848	0.9965233284369494
0.013796260063836385	1.0551453709993647e-24	2.9161086016632533e8	9.07128650269162e24	86.64231503359062	87.65901288102567	2.23837410804848	0.9965233284369494
0.013850510451677282	1.0750664088133094e-24	2.9161086016632533e8	9.07128650269162e24	86.64231503359062	87.65901288102567	2.23837410804848	0.9965233284369494
0.013904974165779531	1.095258272205104e-24	2.9161086016632533e8	9.07128650269162e24	86.64231503359062	87.65901288102567	2.23837410804848	0.9965233284369494
0.013959652044996123	1.1157235429527585e-24	2.9161086016632533e8	9.07128650269162e24	86.64231503359062	87.65901288102567	2.23837410804848	0.9965233284369494
0.014014544931478405	1.1364648249389228e-24	2.9161086016632533e8	9.07128650269162e24	86.64231503359062	87.65901288102567	2.23837410804848	0.9965233284369494
0.014069653670689493	1.1574847443321616e-24	2.9161086016632533e8	9.07128650269162e24	86.64231503359062	87.65901288102567	2.23837410804848	0.9965233284369494
0.014124979111416863	1.178785949769348e-24	2.9161086016632533e8	9.07128650269162e24	86.64231503359062	87.65901288102567	2.23837410804848	0.9965233284369494
0.014180522105785862	1.2003711125398603e-24	2.9161086016632533e8	9.07128650269162e24	86.64231503359062	87.65901288102567	2.23837410804848	0.9965233284369494
0.014236283509272377	1.2222429267709173e-24	2.9161086016632533e8	9.07128650269162e24	86.64231503359062	87.65901288102567	2.23837410804848	0.9965233284369494
0.014292264180716474	1.244404109614739e-24	2.9161086016632533e8	9.07128650269162e24	86.64231503359062	87.65901288102567	2.23837410804848	0.9965233284369494
0.014348464982335166	1.2668574014368731e-24	2.9161086016632533e8	9.07128650269162e24	86.64231503359062	87.65901288102567	2.23837410804848	0.9965233284369494
0.014404886779736158	1.2896055660063808e-24	2.9161086016632533e8	9.07128650269162e24	86.64231503359062	87.65901288102567	2.23837410804848	0.9965233284369494
0.014461530441930704	1.3126513906871853e-24	2.9161086016632533e8	9.07128650269162e24	86.64231503359062	87.65901288102567	2.23837410804848	0.9965233284369494
0.014518396841347465	1.3359976866313265e-24	2.9161086016632533e8	9.07128650269162e24	86.64231503359062	87.65901288102567	2.23837410804848	0.9965233284369494
0.01457548685384548	1.3596472889734e-24	2.9161086016632533e8	9.07128650269162e24	86.64231503359062	87.65901288102567	2.23837410804848	0.9965233284369494
0.014632801358728124	1.3836030570269208e-24	2.9161086016632533e8	9.07128650269162e24	86.64231503359062	87.65901288102567	2.23837410804848	0.9965233284369494
0.014690341238756175	1.407867874481896e-24	2.9161086016632533e8	9.07128650269162e24	86.64231503359062	87.65901288102567	2.23837410804848	0.9965233284369494
0.014748107380161891	1.4324446496043519e-24	2.9161086016632533e8	9.07128650269162e24	86.64231503359062	87.65901288102567	2.23837410804848	0.9965233284369494
0.014806100672662179	1.4573363154370865e-24	2.9161086016632533e8	9.07128650269162e24	86.64231503359062	87.65901288102567	2.23837410804848	0.9965233284369494
0.01486432200947278	1.4825458300024259e-24	2.9161086016632533e8	9.07128650269162e24	86.64231503359062	87.65901288102567	2.23837410804848	0.9965233284369494
0.01492277228732154	1.5080761765061884e-24	2.9161086016632533e8	9.07128650269162e24	86.64231503359062	87.65901288102567	2.23837410804848	0.9965233284369494
0.014981452406462715	1.5339303635437221e-24	2.9161086016632533e8	9.07128650269162e24	86.64231503359062	87.65901288102567	2.23837410804848	0.9965233284369494
0.015040363270690336	1.5601114253071532e-24	2.9161086016632533e8	9.07128650269162e24	86.64231503359062	87.65901288102567	2.23837410804848	0.9965233284369494
0.015099505787352639	1.586622421794735e-24	2.9161086016632533e8	9.07128650269162e24	86.64231503359062	87.65901288102567	2.23837410804848	0.9965233284369494
0.015158880867365524	1.613466439021441e-24	2.9161086016632533e8	9.07128650269162e24	86.64231503359062	87.65901288102567	2.23837410804848	0.9965233284369494
0.015218489425227097	1.640646589231678e-24	2.9161086016632533e8	9.07128650269162e24	86.64231503359062	87.65901288102567	2.23837410804848	0.9965233284369494
0.015278332379031251	1.668166011113273e-24	2.9161086016632533e8	9.07128650269162e24	86.64231503359062	87.65901288102567	2.23837410804848	0.9965233284369494
0.015338410650482307	1.6960278700136208e-24	2.9161086016632533e8	9.07128650269162e24	86.64231503359062	87.65901288102567	2.23837410804848	0.9965233284369494
0.015398725164908712	1.7242353581570977e-24	2.9161086016632533e8	9.07128650269162e24	86.64231503359062	87.65901288102567	2.23837410804848	0.9965233284369494
0.015459276851277789	1.7527916948647012e-24	2.9161086016632533e8	9.07128650269162e24	86.64231503359062	87.65901288102567	2.23837410804848	0.9965233284369494
0.015520066642209542	1.7817001267749633e-24	2.9161086016632533e8	9.07128650269162e24	86.64231503359062	87.65901288102567	2.23837410804848	0.9965233284369494
0.015581095473991526	1.8109639280671193e-24	2.9161086016632533e8	9.07128650269162e24	86.64231503359062	87.65901288102567	2.23837410804848	0.9965233284369494
0.015642364286592766	1.8405864006855815e-24	2.9161086016632533e8	9.07128650269162e24	86.64231503359062	87.65901288102567	2.23837410804848	0.9965233284369494
0.015703874023678732	1.8705708745667005e-24	2.9161086016632533e8	9.07128650269162e24	86.64231503359062	87.65901288102567	2.23837410804848	0.9965233284369494
0.015765625632625378	1.9009207078668473e-24	2.9161086016632533e8	9.07128650269162e24	86.64231503359062	87.65901288102567	2.23837410804848	0.9965233284369494
0.015827620064534226	1.931639287192826e-24	2.9161086016632533e8	9.07128650269162e24	86.64231503359062	87.65901288102567	2.23837410804848	0.9965233284369494
0.01588985827424652	1.9627300278336233e-24	2.9161086016632533e8	9.07128650269162e24	86.64231503359062	87.65901288102567	2.23837410804848	0.9965233284369494
0.015952341220358438	1.9941963739945342e-24	2.9161086016632533e8	9.07128650269162e24	86.64231503359062	87.65901288102567	2.23837410804848	0.9965233284369494
0.01601506986523541	2.0260417990326736e-24	2.9161086016632533e8	9.07128650269162e24	86.64231503359062	87.65901288102567	2.23837410804848	0.9965233284369494
0.016078045175027124	2.0582698056946868e-24	2.9161086016632533e8	9.07128650269162e24	86.64231503359062	87.65901288102567	2.23837410804848	0.9965233284369494
0.01614126811968261	2.0908839263564034e-24	2.9161086016632533e8	9.07128650269162e24	86.64231503359062	87.65901288102567	2.23837410804848	0.9965233284369494
0.016204739672964725	2.123887723264027e-24	2.9161086016632533e8	9.07128650269162e24	86.64231503359062	87.65901288102567	2.23837410804848	0.9965233284369494
0.016268460812465673	2.1572847887778134e-24	2.9161086016632533e8	9.07128650269162e24	86.64231503359062	87.65901288102567	2.23837410804848	0.9965233284369494
0.016332432519621527	2.1910787456171044e-24	2.9161086016632533e8	9.07128650269162e24	86.64231503359062	87.65901288102567	2.23837410804848	0.9965233284369494
0.016396655779727883	2.225273247107919e-24	2.9161086016632533e8	9.07128650269162e24	86.64231503359062	87.65901288102567	2.23837410804848	0.9965233284369494
