r[m]	M[Msun]	rho[g/cm^3]	P[N/m^2]	n_e[pm^-3]	n_p[pm^-3]	muF_e[MeV]	B
0.01000000000000002	1.4781169027383828e-37	1.1640341131457586e10	1.267904136625608e27	3444.0635148123984	2619.704883710239	8.722829960901223	0.987566021330815
0.010037350840709374	2.781703639479689e-25	1.1640341131457586e10	1.267904136625608e27	3444.0635148123984	2619.704883710239	8.722829960901223	0.987566021330815
0.010074841189948898	5.617743609940894e-25	1.1640341131457586e10	1.267904136625608e27	3444.0635148123984	2619.704883710239	8.722829960901223	0.987566021330815
0.01011247156879468	8.469176427649302e-25	1.1640341131457586e10	1.267904136625608e27	3444.0635148123984	2619.704883710239	8.722829960901223	0.987566021330815
0.010150242500269031	1.1339328400612576e-24	1.1640341131457586e10	1.267904136625608e27	3444.0635148123984	2619.704883710239	8.722829960901223	0.987566021330815
0.010188154509347918	1.4270447077114092e-24	1.1640341131457586e10	1.267904136625608e27	3444.0635148123984	2619.704883710239	8.722829960901223	0.987566021330815
0.010226208122968011	1.7223860596047245e-24	1.1640341131457586e10	1.267904136625608e27	3444.0635148123984	2619.704883710239	8.722829960901223	0.987566021330815
0.01026440387003418	2.0175536774195213e-24	1.1640341131457586e10	1.267904136625608e27	3444.0635148123984	2619.704883710239	8.722829960901223	0.987566021330815
0.010302742281426793	2.3157476422186267e-24	1.1640341131457586e10	1.267904136625608e27	3444.0635148123984	2619.704883710239	8.722829960901223	0.987566021330815
0.010341223890009103	2.6173071551342556e-24	1.1640341131457586e10	1.267904136625608e27	3444.0635148123984	2619.704883710239	8.722829960901223	0.987566021330815
0.010379849230634652	2.9222616392756346e-24	1.1640341131457586e10	1.267904136625608e27	3444.0635148123984	2619.704883710239	8.722829960901223	0.987566021330815
0.010418618840154664	3.230640753775582e-24	1.1640341131457586e10	1.267904136625608e27	3444.0635148123984	2619.704883710239	8.722829960901223	0.987566021330815
0.010457533257425674	3.542474395617386e-24	1.1640341131457586e10	1.267904136625608e27	3444.0635148123984	2619.704883710239	8.722829960901223	0.987566021330815
0.010496593023316762	3.857799652498584e-24	1.1640341131457586e10	1.267904136625608e27	3444.0635148123984	2619.704883710239	8.722829960901223	0.987566021330815
0.010535798680717244	4.1766873126678514e-24	1.1640341131457586e10	1.267904136625608e27	3444.0635148123984	2619.704883710239	8.722829960901223	0.987566021330815
0.010575150774544174	4.499175026387495e-24	1.1640341131457586e10	1.267904136625608e27	3444.0635148123984	2619.704883710239	8.722829960901223	0.987566021330815
0.010614649851749914	4.8252942692631196e-24	1.1640341131457586e10	1.267904136625608e27	3444.0635148123984	2619.704883710239	8.722829960901223	0.987566021330815
0.010654296461329742	5.155076769396298e-24	1.1640341131457586e10	1.267904136625608e27	3444.0635148123984	2619.704883710239	8.722829960901223	0.987566021330815
0.010694091154329477	5.488554509337536e-24	1.1640341131457586e10	1.267904136625608e27	3444.0635148123984	2619.704883710239	8.722829960901223	0.987566021330815
0.010734034483853102	5.825766066241232e-24	1.1640341131457586e10	1.267904136625608e27	3444.0635148123984	2619.704883710239	8.722829960901223	0.987566021330815
0.010774127005070614	6.1667861627241806e-24	1.1640341131457586e10	1.267904136625608e27	3444.0635148123984	2619.704883710239	8.722829960901223	0.987566021330815
0.010814369275225489	6.511655864243645e-24	1.1640341131457586e10	1.267904136625608e27	3444.0635148123984	2619.704883710239	8.722829960901223	0.987566021330815
0.010854761853642595	6.860408827488042e-24	1.1640341131457586e10	1.267904136625608e27	3444.0635148123984	2619.704883710239	8.722829960901223	0.987566021330815
0.010895305301735934	7.21307897913587e-24	1.1640341131457586e10	1.267904136625608e27	3444.0635148123984	2619.704883710239	8.722829960901223	0.987566021330815
0.010936000183016426	7.569700517943929e-24	1.1640341131457586e10	1.267904136625608e27	3444.0635148123984	2619.704883710239	8.722829960901223	0.987566021330815
0.010976847063099758	7.930310668100391e-24	1.1640341131457586e10	1.267904136625608e27	3444.0635148123984	2619.704883710239	8.722829960901223	0.987566021330815
0.01101784650971419	8.294961052053841e-24	1.1640341131457586e10	1.267904136625608e27	3444.0635148123984	2619.704883710239	8.722829960901223	0.987566021330815
0.011058999092708636	8.663698820111137e-24	1.1640341131457586e10	1.267904136625608e27	3444.0635148123984	2619.704883710239	8.722829960901223	0.987566021330815
0.011100305384060302	9.036570459971201e-24	1.1640341131457586e10	1.267904136625608e27	3444.0635148123984	2619.704883710239	8.722829960901223	0.987566021330815
0.011141765957882825	9.413622988368126e-24	1.1640341131457586e10	1.267904136625608e27	3444.0635148123984	2619.704883710239	8.722829960901223	0.987566021330815
0.011183381390434203	9.794903957075853e-24	1.1640341131457586e10	1.267904136625608e27	3444.0635148123984	2619.704883710239	8.722829960901223	0.987566021330815
0.011225152260124808	1.0180461458981221e-23	1.1640341131457586e10	1.267904136625608e27	3444.0635148123984	2619.704883710239	8.722829960901223	0.987566021330815
0.011267079147525425	1.05703441342257e-23	1.1640341131457586e10	1.267904136625608e27	3444.0635148123984	2619.704883710239	8.722829960901223	0.987566021330815
0.01130916263537527	1.0964601176416288e-23	1.1640341131457586e10	1.267904136625608e27	3444.0635148123984	2619.704883710239	8.722829960901223	0.987566021330815
0.011351403308590278	1.1363282338908769e-23	1.1640341131457586e10	1.267904136625608e27	3444.0635148123984	2619.704883710239	8.722829960901223	0.987566021330815
0.011393801754270958	1.176643794115808e-23	1.1640341131457586e10	1.267904136625608e27	3444.0635148123984	2619.704883710239	8.722829960901223	0.987566021330815
0.011436358561710732	1.2174118875144421e-23	1.1640341131457586e10	1.267904136625608e27	3444.0635148123984	2619.704883710239	8.722829960901223	0.987566021330815
0.011479074322404083	1.2586376611870307e-23	1.1640341131457586e10	1.267904136625608e27	3444.0635148123984	2619.704883710239	8.722829960901223	0.987566021330815
0.011521949630054778	1.3003263207931473e-23	1.1640341131457586e10	1.267904136625608e27	3444.0635148123984	2619.704883710239	8.722829960901223	0.987566021330815
0.011564985080584117	1.342483131216218e-23	1.1640341131457586e10	1.267904136625608e27	3444.0635148123984	2619.704883710239	8.722829960901223	0.987566021330815
0.011608181272139211	1.385113417235557e-23	1.1640341131457586e10	1.267904136625608e27	3444.0635148123984	2619.704883710239	8.722829960901223	0.987566021330815
0.011651538805101263	1.4282225642059977e-23	1.1640341131457586e10	1.267904136625608e27	3444.0635148123984	2619.704883710239	8.722829960901223	0.987566021330815
0.011695058282094082	1.471816018745408e-23	1.1640341131457586e10	1.267904136625608e27	3444.0635148123984	2619.704883710239	8.722829960901223	0.987566021330815
0.011738740307992193	1.515899289429555e-23	1.1640341131457586e10	1.267904136625608e27	3444.0635148123984	2619.704883710239	8.722829960901223	0.987566021330815
0.011782585489929422	1.5604779474952685e-23	1.1640341131457586e10	1.267904136625608e27	3444.0635148123984	2619.704883710239	8.722829960901223	0.987566021330815
0.011826594437307294	1.605557627551371e-23	1.1640341131457586e10	1.267904136625608e27	3444.0635148123984	2619.704883710239	8.722829960901223	0.987566021330815
0.011870767761803493	1.6511440282976437e-23	1.1640341131457586e10	1.267904136625608e27	3444.0635148123984	2619.704883710239	8.722829960901223	0.987566021330815
0.011915106077380378	1.6972429132519874e-23	1.1640341131457586e10	1.267904136625608e27	3444.0635148123984	2619.704883710239	8.722829960901223	0.987566021330815
0.011959610000293459	1.743860111485726e-23	1.1640341131457586e10	1.267904136625608e27	3444.0635148123984	2619.704883710239	8.722829960901223	0.987566021330815
0.012004280149100155	1.7910015183674837e-23	1.1640341131457586e10	1.267904136625608e27	3444.0635148123984	2619.704883710239	8.722829960901223	0.987566021330815
0.012049117144668105	1.8386730963149978e-23	1.1640341131457586e10	1.267904136625608e27	3444.0635148123984	2619.704883710239	8.722829960901223	0.987566021330815
0.01209412161018399	1.8868808755559162e-23	1.1640341131457586e10	1.267904136625608e27	3444.0635148123984	2619.704883710239	8.722829960901223	0.987566021330815
0.012139294171162144	1.9356309548969817e-23	1.1640341131457586e10	1.267904136625608e27	3444.0635148123984	2619.704883710239	8.722829960901223	0.987566021330815
0.012184635455453252	1.984929502501937e-23	1.1640341131457586e10	1.267904136625608e27	3444.0635148123984	2619.704883710239	8.722829960901223	0.987566021330815
0.012230146093253071	2.0347827566782564e-23	1.1640341131457586e10	1.267904136625608e27	3444.0635148123984	2619.704883710239	8.722829960901223	0.987566021330815
0.012275826717111143	2.085197026672719e-23	1.1640341131457586e10	1.267904136625608e27	3444.0635148123984	2619.704883710239	8.722829960901223	0.987566021330815
0.012321677961939788	2.1361786934762552e-23	1.1640341131457586e10	1.267904136625608e27	3444.0635148123984	2619.704883710239	8.722829960901223	0.987566021330815
0.012367700465022625	2.1877342106373444e-23	1.164034113145758e10	1.2679041366256076e27	3444.0635148123974	2619.7048837102375	8.722829960901223	0.987566021330815
0.012413894866023631	2.2398701050851803e-23	1.164034113145758e10	1.2679041366256076e27	3444.0635148123974	2619.7048837102375	8.722829960901223	0.987566021330815
0.012460261806995984	2.2925929779618623e-23	1.164034113145758e10	1.2679041366256076e27	3444.0635148123974	2619.7048837102375	8.722829960901223	0.987566021330815
0.012506801932390978	2.3459095054640542e-23	1.164034113145758e10	1.2679041366256076e27	3444.0635148123974	2619.7048837102375	8.722829960901223	0.987566021330815
0.012553515889066972	2.3998264396941654e-23	1.164034113145758e10	1.2679041366256076e27	3444.0635148123974	2619.7048837102375	8.722829960901223	0.987566021330815
0.012600404326298461	2.45435060952125e-23	1.164034113145758e10	1.2679041366256076e27	3444.0635148123974	2619.7048837102375	8.722829960901223	0.987566021330815
0.012647467895784966	2.5094889214514217e-23	1.164034113145758e10	1.2679041366256076e27	3444.0635148123974	2619.7048837102375	8.722829960901223	0.987566021330815
0.012694707251660177	2.5652483605083465e-23	1.164034113145758e10	1.2679041366256076e27	3444.0635148123974	2619.7048837102375	8.722829960901223	0.987566021330815
0.012742123050501016	2.6216359911235785e-23	1.164034113145758e10	1.2679041366256076e27	3444.0635148123974	2619.7048837102375	8.722829960901223	0.987566021330815
0.012789715951336841	2.678658958037083e-23	1.164034113145758e10	1.2679041366256076e27	3444.0635148123974	2619.7048837102375	8.722829960901223	0.987566021330815
0.012837486615658469	2.7363244872077e-23	1.164034113145758e10	1.2679041366256076e27	3444.0635148123974	2619.7048837102375	8.722829960901223	0.987566021330815
0.012885435707427435	2.794639886734148e-23	1.164034113145758e10	1.2679041366256076e27	3444.0635148123974	2619.7048837102375	8.722829960901223	0.987566021330815
0.01293356389308531	2.8536125477864605e-23	1.164034113145758e10	1.2679041366256076e27	3444.0635148123974	2619.7048837102375	8.722829960901223	0.987566021330815
0.0129818718415628	2.9132499455476787e-23	1.164034113145758e10	1.2679041366256076e27	3444.0635148123974	2619.7048837102375	8.722829960901223	0.987566021330815
0.013030360224289144	2.9735596401664915e-23	1.164034113145758e10	1.2679041366256076e27	3444.0635148123974	2619.7048837102375	8.722829960901223	0.987566021330815
0.013079029715201411	3.034549277720486e-23	1.164034113145758e10	1.2679041366256076e27	3444.0635148123974	2619.7048837102375	8.722829960901223	0.987566021330815
0.01312788099075395	3.0962265911904716e-23	1.164034113145758e10	1.2679041366256076e27	3444.0635148123974	2619.7048837102375	8.722829960901223	0.987566021330815
0.013176914729927653	3.158599401445507e-23	1.164034113145758e10	1.2679041366256076e27	3444.0635148123974	2619.7048837102375	8.722829960901223	0.987566021330815
0.013226131614239479	3.2216756182393754e-23	1.164034113145758e10	1.2679041366256076e27	3444.0635148123974	2619.7048837102375	8.722829960901223	0.987566021330815
0.013275532327751895	3.2854632412181715e-23	1.164034113145758e10	1.2679041366256076e27	3444.0635148123974	2619.7048837102375	8.722829960901223	0.987566021330815
0.013325117557082468	3.349970360939429e-23	1.164034113145758e10	1.2679041366256076e27	3444.0635148123974	2619.7048837102375	8.722829960901223	0.987566021330815
0.01337488799141327	3.415204515866491e-23	1.164034113145758e10	1.2679041366256076e27	3444.0635148123974	2619.7048837102375	8.722829960901223	0.987566021330815
0.013424844322500514	3.481172429375474e-23	1.164034113145758e10	1.2679041366256076e27	3444.0635148123974	2619.7048837102375	8.722829960901223	0.987566021330815
0.013474987244684274	3.54788229435674e-23	1.164034113145758e10	1.2679041366256076e27	3444.0635148123974	2619.7048837102375	8.722829960901223	0.987566021330815
0.013525317454897951	3.6153424556548583e-23	1.164034113145758e10	1.2679041366256076e27	3444.0635148123974	2619.7048837102375	8.722829960901223	0.987566021330815
0.013575835652678085	3.683561351970209e-23	1.164034113145758e10	1.2679041366256076e27	3444.0635148123974	2619.7048837102375	8.722829960901223	0.987566021330815
0.013626542540174013	3.75254751691453e-23	1.164034113145758e10	1.2679041366256076e27	3444.0635148123974	2619.7048837102375	8.722829960901223	0.987566021330815
0.013677438822157741	3.8223095800785283e-23	1.164034113145758e10	1.2679041366256076e27	3444.0635148123974	2619.7048837102375	8.722829960901223	0.987566021330815
0.013728525206033576	3.8928562681111637e-23	1.164034113145758e10	1.2679041366256076e27	3444.0635148123974	2619.7048837102375	8.722829960901223	0.987566021330815
0.01377980240184807	3.9641964058114344e-23	1.164034113145758e10	1.2679041366256076e27	3444.0635148123974	2619.7048837102375	8.722829960901223	0.987566021330815
0.01383127112229982	4.036338917232178e-23	1.164034113145758e10	1.2679041366256076e27	3444.0635148123974	2619.7048837102375	8.722829960901223	0.987566021330815
0.013882932082749511	4.1092928267965916e-23	1.164034113145758e10	1.2679041366256076e27	3444.0635148123974	2619.7048837102375	8.722829960901223	0.987566021330815
0.013934786001229667	4.183067260426846e-23	1.164034113145758e10	1.2679041366256076e27	3444.0635148123974	2619.7048837102375	8.722829960901223	0.987566021330815
0.013986833598454724	4.257671446685789e-23	1.164034113145758e10	1.2679041366256076e27	3444.0635148123974	2619.7048837102375	8.722829960901223	0.987566021330815
0.014039075597831139	4.3331147179315e-23	1.164034113145758e10	1.2679041366256076e27	3444.0635148123974	2619.7048837102375	8.722829960901223	0.987566021330815
0.014091512725467256	4.409406511484409e-23	1.164034113145758e10	1.2679041366256076e27	3444.0635148123974	2619.7048837102375	8.722829960901223	0.987566021330815
0.014144145710183532	4.486556370808022e-23	1.164034113145758e10	1.2679041366256076e27	3444.0635148123974	2619.7048837102375	8.722829960901223	0.987566021330815
0.014196975283522598	4.564573946702631e-23	1.164034113145758e10	1.2679041366256076e27	3444.0635148123974	2619.7048837102375	8.722829960901223	0.987566021330815
0.014250002179759549	4.6434689985127287e-23	1.164034113145758e10	1.2679041366256076e27	3444.0635148123974	2619.7048837102375	8.722829960901223	0.987566021330815
0.014303227135911964	4.72325139534755e-23	1.164034113145758e10	1.2679041366256076e27	3444.0635148123974	2619.7048837102375	8.722829960901223	0.987566021330815
0.01435665089175028	4.803931117315789e-23	1.164034113145758e10	1.2679041366256076e27	3444.0635148123974	2619.7048837102375	8.722829960901223	0.987566021330815
0.014410274189808007	4.88551825677395e-23	1.164034113145758e10	1.2679041366256076e27	3444.0635148123974	2619.7048837102375	8.722829960901223	0.987566021330815
0.014464097775392171	4.968023019588992e-23	1.164034113145758e10	1.2679041366256076e27	3444.0635148123974	2619.7048837102375	8.722829960901223	0.987566021330815
0.014518122396593492	5.051455726414718e-23	1.164034113145758e10	1.2679041366256076e27	3444.0635148123974	2619.7048837102375	8.722829960901223	0.987566021330815
0.014572348804296868	5.135826813982942e-23	1.164034113145758e10	1.2679041366256076e27	3444.0635148123974	2619.7048837102375	8.722829960901223	0.987566021330815
0.014626777752191912	5.221146836409185e-23	1.164034113145758e10	1.2679041366256076e27	3444.0635148123974	2619.7048837102375	8.722829960901223	0.987566021330815
0.014681409996783239	5.307426466512617e-23	1.164034113145758e10	1.2679041366256076e27	3444.0635148123974	2619.7048837102375	8.722829960901223	0.987566021330815
0.014736246297401095	5.394676497151324e-23	1.1640341131457577e10	1.267904136625607e27	3444.063514812396	2619.704883710237	8.72282996090122	0.987566021330815
0.014791287416211867	5.482907842572309e-23	1.1640341131457577e10	1.267904136625607e27	3444.063514812396	2619.704883710237	8.72282996090122	0.987566021330815
0.01484653411822879	5.572131539776987e-23	1.1640341131457577e10	1.267904136625607e27	3444.063514812396	2619.704883710237	8.72282996090122	0.987566021330815
0.014901987171322385	5.662358749901487e-23	1.1640341131457577e10	1.267904136625607e27	3444.063514812396	2619.704883710237	8.72282996090122	0.987566021330815
0.014957647346231274	5.753600759613054e-23	1.1640341131457577e10	1.267904136625607e27	3444.063514812396	2619.704883710237	8.72282996090122	0.987566021330815
0.015013515416572823	5.845868982521799e-23	1.1640341131457577e10	1.267904136625607e27	3444.063514812396	2619.704883710237	8.72282996090122	0.987566021330815
0.015069592158854008	5.939174960608636e-23	1.1640341131457577e10	1.267904136625607e27	3444.063514812396	2619.704883710237	8.72282996090122	0.987566021330815
0.015125878352482035	6.033530365668802e-23	1.1640341131457577e10	1.267904136625607e27	3444.063514812396	2619.704883710237	8.72282996090122	0.987566021330815
0.015182374779775269	6.128947000772062e-23	1.1640341131457577e10	1.267904136625607e27	3444.063514812396	2619.704883710237	8.72282996090122	0.987566021330815
0.015239082225974178	6.225436801739284e-23	1.1640341131457577e10	1.267904136625607e27	3444.063514812396	2619.704883710237	8.72282996090122	0.987566021330815
0.01529600147925209	6.323011838635255e-23	1.1640341131457577e10	1.267904136625607e27	3444.063514812396	2619.704883710237	8.72282996090122	0.987566021330815
0.015353133330726248	6.421684317278716e-23	1.1640341131457577e10	1.267904136625607e27	3444.063514812396	2619.704883710237	8.72282996090122	0.987566021330815
0.015410478574468759	6.521466580769108e-23	1.1640341131457577e10	1.267904136625607e27	3444.063514812396	2619.704883710237	8.72282996090122	0.987566021330815
0.01546803800751775	6.622371111030825e-23	1.1640341131457577e10	1.267904136625607e27	3444.063514812396	2619.704883710237	8.72282996090122	0.987566021330815
0.015525812429888253	6.72441053037424e-23	1.1640341131457577e10	1.267904136625607e27	3444.063514812396	2619.704883710237	8.72282996090122	0.987566021330815
0.01558380264458346	6.827597603074903e-23	1.1640341131457577e10	1.267904136625607e27	3444.063514812396	2619.704883710237	8.72282996090122	0.987566021330815
0.015642009457605813	6.931945236970102e-23	1.1640341131457577e10	1.267904136625607e27	3444.063514812396	2619.704883710237	8.72282996090122	0.987566021330815
0.015700433677968337	7.03746648507378e-23	1.1640341131457577e10	1.267904136625607e27	3444.063514812396	2619.704883710237	8.72282996090122	0.987566021330815
0.015759076117705696	7.144174547209003e-23	1.1640341131457577e10	1.267904136625607e27	3444.063514812396	2619.704883710237	8.72282996090122	0.987566021330815
0.015817937591885566	7.252082771659297e-23	1.1640341131457577e10	1.267904136625607e27	3444.063514812396	2619.704883710237	8.72282996090122	0.987566021330815
0.01587701891862007	7.361204656838635e-23	1.1640341131457577e10	1.267904136625607e27	3444.063514812396	2619.704883710237	8.72282996090122	0.987566021330815
