r[m]	M[Msun]	rho[g/cm^3]	P[N/m^2]	n_e[pm^-3]	n_p[pm^-3]	muF_e[MeV]	B
0.010000000000000018	3.866071775266421e-41	3.342226606744387e6	1.6563351327760164e22	0.9982935195378936	3.0165563881577935	0.2848641392357272	0.999495024911383
0.010041251508163576	8.856962212824198e-29	3.342226606744387e6	1.6563351327760164e22	0.9982935195378936	3.0165563881577935	0.2848641392357272	0.999495024911383
0.010082673185019715	1.803037551073773e-28	3.342226606744387e6	1.6563351327760164e22	0.9982935195378936	3.0165563881577935	0.2848641392357272	0.999495024911383
0.01012426573253995	2.7501864495129813e-28	3.342226606744387e6	1.6563351327760164e22	0.9982935195378936	3.0165563881577935	0.2848641392357272	0.999495024911383
0.010166029855591584	3.7252541936728317e-28	3.342226606744387e6	1.6563351327760164e22	0.9982935195378936	3.0165563881577935	0.2848641392357272	0.999495024911383
0.010207966261949477	4.726299966293368e-28	3.342226606744387e6	1.6563351327760164e22	0.9982935195378936	3.0165563881577935	0.2848641392357272	0.999495024911383
0.010250075662308292	5.751329930757569e-28	3.342226606744387e6	1.6563351327760164e22	0.9982935195378936	3.0165563881577935	0.2848641392357272	0.999495024911383
0.010292358770294375	6.798296292096573e-28	3.342226606744387e6	1.6563351327760164e22	0.9982935195378936	3.0165563881577935	0.2848641392357272	0.999495024911383
0.010334816302477883	7.865096343846165e-28	3.342226606744387e6	1.6563351327760164e22	0.9982935195378936	3.0165563881577935	0.2848641392357272	0.999495024911383
0.01037744897838494	8.94957150055031e-28	3.342226606744387e6	1.6563351327760164e22	0.9982935195378936	3.0165563881577935	0.2848641392357272	0.999495024911383
0.010420257520509818	1.00495063157133e-27	3.342226606744387e6	1.6563351327760164e22	0.9982935195378936	3.0165563881577935	0.2848641392357272	0.999495024911383
0.010463242654327232	1.116262748499933e-27	3.342226606744387e6	1.6563351327760164e22	0.9982935195378936	3.0165563881577935	0.2848641392357272	0.999495024911383
0.01050640510830446	1.228660283446775e-27	3.342226606744387e6	1.6563351327760164e22	0.9982935195378936	3.0165563881577935	0.2848641392357272	0.999495024911383
0.01054974561391395	1.3419040293652604e-27	3.342226606744387e6	1.6563351327760164e22	0.9982935195378936	3.0165563881577935	0.2848641392357272	0.999495024911383
0.010593264905645534	1.4557486853253343e-27	3.342226606744387e6	1.6563351327760164e22	0.9982935195378936	3.0165563881577935	0.2848641392357272	0.999495024911383
0.010636963721018933	1.5699427507240839e-27	3.342226606744387e6	1.6563351327760164e22	0.9982935195378936	3.0165563881577935	0.2848641392357272	0.999495024911383
0.010680842800596245	1.6842284179154608e-27	3.342226606744387e6	1.6563351327760164e22	0.9982935195378936	3.0165563881577935	0.2848641392357272	0.999495024911383
0.010724902887994537	1.7983414632375048e-27	3.342226606744387e6	1.6563351327760164e22	0.9982935195378936	3.0165563881577935	0.2848641392357272	0.999495024911383
0.010769144729898287	1.912011136414226e-27	3.342226606744387e6	1.6563351327760164e22	0.9982935195378936	3.0165563881577935	0.2848641392357272	0.999495024911383
0.010813569076072282	2.0249600483111772e-27	3.342226606744387e6	1.6563351327760164e22	0.9982935195378936	3.0165563881577935	0.2848641392357272	0.999495024911383
0.010858176679374165	2.1369040570198627e-27	3.342226606744387e6	1.6563351327760164e22	0.9982935195378936	3.0165563881577935	0.2848641392357272	0.999495024911383
0.010902968295767224	2.2502162689081163e-27	3.342226606744387e6	1.6563351327760164e22	0.9982935195378936	3.0165563881577935	0.2848641392357272	0.999495024911383
0.010947944684333211	2.367549657816048e-27	3.342226606744387e6	1.6563351327760164e22	0.9982935195378936	3.0165563881577935	0.2848641392357272	0.999495024911383
0.010993106607285209	2.4886469626922767e-27	3.342226606744387e6	1.6563351327760164e22	0.9982935195378936	3.0165563881577935	0.2848641392357272	0.999495024911383
0.011038454829980586	2.6132422672286896e-27	3.342226606744387e6	1.6563351327760164e22	0.9982935195378936	3.0165563881577935	0.2848641392357272	0.999495024911383
0.01108399012093379	2.741062397061864e-27	3.342226606744387e6	1.6563351327760164e22	0.9982935195378936	3.0165563881577935	0.2848641392357272	0.999495024911383
0.011129713251829642	2.8718267912497828e-27	3.342226606744387e6	1.6563351327760164e22	0.9982935195378936	3.0165563881577935	0.2848641392357272	0.999495024911383
0.011175624997536234	3.0052473718100004e-27	3.342226606744387e6	1.6563351327760164e22	0.9982935195378936	3.0165563881577935	0.2848641392357272	0.999495024911383
0.01122172613611811	3.1410284112941945e-27	3.342226606744387e6	1.6563351327760164e22	0.9982935195378936	3.0165563881577935	0.2848641392357272	0.999495024911383
0.011268017448849442	3.278866398370912e-27	3.342226606744387e6	1.6563351327760164e22	0.9982935195378936	3.0165563881577935	0.2848641392357272	0.999495024911383
0.011314499720227276	3.4184499013890266e-27	3.342226606744387e6	1.6563351327760164e22	0.9982935195378936	3.0165563881577935	0.2848641392357272	0.999495024911383
0.011361173737984879	3.559459429893917e-27	3.342226606744387e6	1.6563351327760164e22	0.9982935195378936	3.0165563881577935	0.2848641392357272	0.999495024911383
0.011408040293104889	3.7015672940670896e-27	3.342226606744387e6	1.6563351327760164e22	0.9982935195378936	3.0165563881577935	0.2848641392357272	0.999495024911383
0.011455100179833012	3.844437462062519e-27	3.342226606744387e6	1.6563351327760164e22	0.9982935195378936	3.0165563881577935	0.2848641392357272	0.999495024911383
0.01150235419569129	3.987725415207701e-27	3.342226606744387e6	1.6563351327760164e22	0.9982935195378936	3.0165563881577935	0.2848641392357272	0.999495024911383
0.011549803141491665	4.131078001041909e-27	3.342226606744387e6	1.6563351327760164e22	0.9982935195378936	3.0165563881577935	0.2848641392357272	0.999495024911383
0.011597447821349539	4.27413328416075e-27	3.342226606744387e6	1.6563351327760164e22	0.9982935195378936	3.0165563881577935	0.2848641392357272	0.999495024911383
0.011645289042697425	4.416520394837007e-27	3.342226606744387e6	1.6563351327760164e22	0.9982935195378936	3.0165563881577935	0.2848641392357272	0.999495024911383
0.011693327616298658	4.557859375386744e-27	3.342226606744387e6	1.6563351327760164e22	0.9982935195378936	3.0165563881577935	0.2848641392357272	0.999495024911383
0.01174156435626095	4.6985867638009224e-27	3.342226606744387e6	1.6563351327760164e22	0.9982935195378936	3.0165563881577935	0.2848641392357272	0.999495024911383
0.011790000080050477	4.8437973392999644e-27	3.342226606744387e6	1.6563351327760164e22	0.9982935195378936	3.0165563881577935	0.2848641392357272	0.999495024911383
0.011838635608505534	4.994308883845532e-27	3.342226606744387e6	1.6563351327760164e22	0.9982935195378936	3.0165563881577935	0.2848641392357272	0.999495024911383
0.011887471765850503	5.1499674517042365e-27	3.342226606744387e6	1.6563351327760164e22	0.9982935195378936	3.0165563881577935	0.2848641392357272	0.999495024911383
0.01193650937970981	5.3106143407849426e-27	3.342226606744387e6	1.6563351327760164e22	0.9982935195378936	3.0165563881577935	0.2848641392357272	0.999495024911383
0.011985749281122011	5.476086005794417e-27	3.342226606744387e6	1.6563351327760164e22	0.9982935195378936	3.0165563881577935	0.2848641392357272	0.999495024911383
0.012035192304553669	5.646213970066081e-27	3.342226606744387e6	1.6563351327760164e22	0.9982935195378936	3.0165563881577935	0.2848641392357272	0.999495024911383
0.012084839287913802	5.820824736046016e-27	3.342226606744387e6	1.6563351327760164e22	0.9982935195378936	3.0165563881577935	0.2848641392357272	0.999495024911383
0.01213469107256787	5.999739694413716e-27	3.342226606744387e6	1.6563351327760164e22	0.9982935195378936	3.0165563881577935	0.2848641392357272	0.999495024911383
0.012184748503352102	6.182775031821394e-27	3.342226606744387e6	1.6563351327760164e22	0.9982935195378936	3.0165563881577935	0.2848641392357272	0.999495024911383
0.012235012428587797	6.369741637231115e-27	3.342226606744387e6	1.6563351327760164e22	0.9982935195378936	3.0165563881577935	0.2848641392357272	0.999495024911383
0.012285483700095712	6.560445006830584e-27	3.342226606744387e6	1.6563351327760164e22	0.9982935195378936	3.0165563881577935	0.2848641392357272	0.999495024911383
0.01233616317321054	6.754685147507799e-27	3.342226606744387e6	1.6563351327760164e22	0.9982935195378936	3.0165563881577935	0.2848641392357272	0.999495024911383
0.012387051706795212	6.952256478863322e-27	3.342226606744387e6	1.6563351327760164e22	0.9982935195378936	3.0165563881577935	0.2848641392357272	0.999495024911383
0.012438150163255743	7.152947733742569e-27	3.342226606744387e6	1.6563351327760164e22	0.9982935195378936	3.0165563881577935	0.2848641392357272	0.999495024911383
0.012489459408555654	7.356541857263769e-27	3.342226606744387e6	1.6563351327760164e22	0.9982935195378936	3.0165563881577935	0.2848641392357272	0.999495024911383
0.012540980312230703	7.56281590432339e-27	3.342226606744387e6	1.6563351327760164e22	0.9982935195378936	3.0165563881577935	0.2848641392357272	0.999495024911383
0.012592713747403608	7.771540935556615e-27	3.342226606744387e6	1.6563351327760164e22	0.9982935195378936	3.0165563881577935	0.2848641392357272	0.999495024911383
0.012644660590798848	7.982481911731724e-27	3.342226606744387e6	1.6563351327760164e22	0.9982935195378936	3.0165563881577935	0.2848641392357272	0.999495024911383
0.012696821722757577	8.19539758655665e-27	3.342226606744387e6	1.6563351327760164e22	0.9982935195378936	3.0165563881577935	0.2848641392357272	0.999495024911383
0.012749198027252337	8.410040397874406e-27	3.342226606744387e6	1.6563351327760164e22	0.9982935195378936	3.0165563881577935	0.2848641392357272	0.999495024911383
0.01280179039190234	8.626156357228091e-27	3.342226606744387e6	1.6563351327760164e22	0.9982935195378936	3.0165563881577935	0.2848641392357272	0.999495024911383
0.012854599707988317	8.843484937768772e-27	3.342226606744387e6	1.6563351327760164e22	0.9982935195378936	3.0165563881577935	0.2848641392357272	0.999495024911383
0.012907626870467653	9.061758960486139e-27	3.342226606744387e6	1.6563351327760164e22	0.9982935195378936	3.0165563881577935	0.2848641392357272	0.999495024911383
0.012960872777989582	9.280704478737703e-27	3.342226606744387e6	1.6563351327760164e22	0.9982935195378936	3.0165563881577935	0.2848641392357272	0.999495024911383
0.013014338332910394	9.500040661052774e-27	3.342226606744387e6	1.6563351327760164e22	0.9982935195378936	3.0165563881577935	0.2848641392357272	0.999495024911383
0.013068024441308786	9.719479672187906e-27	3.342226606744387e6	1.6563351327760164e22	0.9982935195378936	3.0165563881577935	0.2848641392357272	0.999495024911383
0.01312193201300101	9.938726552408e-27	3.342226606744387e6	1.6563351327760164e22	0.9982935195378936	3.0165563881577935	0.2848641392357272	0.999495024911383
0.01317606196155661	1.0157479094971916e-26	3.342226606744387e6	1.6563351327760164e22	0.9982935195378936	3.0165563881577935	0.2848641392357272	0.999495024911383
0.013230415204313683	1.0375427721793267e-26	3.342226606744387e6	1.6563351327760164e22	0.9982935195378936	3.0165563881577935	0.2848641392357272	0.999495024911383
0.013284992662394485	1.059225535725455e-26	3.342226606744387e6	1.6563351327760164e22	0.9982935195378936	3.0165563881577935	0.2848641392357272	0.999495024911383
0.013339795260721047	1.0807637300147715e-26	3.342226606744387e6	1.6563351327760164e22	0.9982935195378936	3.0165563881577935	0.2848641392357272	0.999495024911383
0.013394823928030887	1.1021241093715665e-26	3.342226606744387e6	1.6563351327760164e22	0.9982935195378936	3.0165563881577935	0.2848641392357272	0.999495024911383
0.013450079596892548	1.123302882226373e-26	3.342226606744387e6	1.6563351327760164e22	0.9982935195378936	3.0165563881577935	0.2848641392357272	0.999495024911383
0.013505563203721723	1.1449931089545154e-26	3.342226606744387e6	1.6563351327760164e22	0.9982935195378936	3.0165563881577935	0.2848641392357272	0.999495024911383
0.013561275688796904	1.1674759702029543e-26	3.342226606744387e6	1.6563351327760164e22	0.9982935195378936	3.0165563881577935	0.2848641392357272	0.999495024911383
0.013617217996275372	1.1907238699577736e-26	3.342226606744387e6	1.6563351327760164e22	0.9982935195378936	3.0165563881577935	0.2848641392357272	0.999495024911383
0.013673391074209205	1.214708387396178e-26	3.342226606744387e6	1.6563351327760164e22	0.9982935195378936	3.0165563881577935	0.2848641392357272	0.999495024911383
0.013729795874561336	1.2394002619422478e-26	3.342226606744387e6	1.6563351327760164e22	0.9982935195378936	3.0165563881577935	0.2848641392357272	0.999495024911383
0.013786433353221739	1.2647693780952675e-26	3.342226606744387e6	1.6563351327760164e22	0.9982935195378936	3.0165563881577935	0.2848641392357272	0.999495024911383
0.01384330447002342	1.2907847500272973e-26	3.342226606744387e6	1.6563351327760164e22	0.9982935195378936	3.0165563881577935	0.2848641392357272	0.999495024911383
0.013900410188759002	1.3174145059471303e-26	3.342226606744387e6	1.6563351327760164e22	0.9982935195378936	3.0165563881577935	0.2848641392357272	0.999495024911383
0.013957751477196845	1.3446258722268747e-26	3.342226606744387e6	1.6563351327760164e22	0.9982935195378936	3.0165563881577935	0.2848641392357272	0.999495024911383
0.014015329307097498	1.3723851572882122e-26	3.342226606744387e6	1.6563351327760164e22	0.9982935195378936	3.0165563881577935	0.2848641392357272	0.999495024911383
0.01407314465423017	1.400657735244839e-26	3.342226606744387e6	1.6563351327760164e22	0.9982935195378936	3.0165563881577935	0.2848641392357272	0.999495024911383
0.014131198498389265	1.429408029297703e-26	3.342226606744387e6	1.6563351327760164e22	0.9982935195378936	3.0165563881577935	0.2848641392357272	0.999495024911383
0.014189491823411041	1.4585994948796065e-26	3.342226606744387e6	1.6563351327760164e22	0.9982935195378936	3.0165563881577935	0.2848641392357272	0.999495024911383
0.014248025617190062	1.4881946025455492e-26	3.342226606744387e6	1.6563351327760164e22	0.9982935195378936	3.0165563881577935	0.2848641392357272	0.999495024911383
0.014306800871696276	1.518154820605652e-26	3.342226606744387e6	1.6563351327760164e22	0.9982935195378936	3.0165563881577935	0.2848641392357272	0.999495024911383
0.014365818582991595	1.5484405974965288e-26	3.342226606744387e6	1.6563351327760164e22	0.9982935195378936	3.0165563881577935	0.2848641392357272	0.999495024911383
0.014425079751246846	1.5790113438879094e-26	3.342226606744387e6	1.6563351327760164e22	0.9982935195378936	3.0165563881577935	0.2848641392357272	0.999495024911383
0.014484585380758702	1.6098254145206227e-26	3.342226606744387e6	1.6563351327760164e22	0.9982935195378936	3.0165563881577935	0.2848641392357272	0.999495024911383
0.014544336479966719	1.6408400897722785e-26	3.342226606744387e6	1.6563351327760164e22	0.9982935195378936	3.0165563881577935	0.2848641392357272	0.999495024911383
0.01460433406147047	1.672011556946864e-26	3.342226606744387e6	1.6563351327760164e22	0.9982935195378936	3.0165563881577935	0.2848641392357272	0.999495024911383
0.014664579142046481	1.7032948912842552e-26	3.342226606744387e6	1.6563351327760164e22	0.9982935195378936	3.0165563881577935	0.2848641392357272	0.999495024911383
0.01472507274266581	1.7346440366862145e-26	3.342226606744387e6	1.6563351327760164e22	0.9982935195378936	3.0165563881577935	0.2848641392357272	0.999495024911383
0.01478581588851112	1.7660117861543274e-26	3.342226606744387e6	1.6563351327760164e22	0.9982935195378936	3.0165563881577935	0.2848641392357272	0.999495024911383
0.0148468096089941	1.7973497619363436e-26	3.342226606744387e6	1.6563351327760164e22	0.9982935195378936	3.0165563881577935	0.2848641392357272	0.999495024911383
0.014908054937772926	1.8286083953767128e-26	3.342226606744387e6	1.6563351327760164e22	0.9982935195378936	3.0165563881577935	0.2848641392357272	0.999495024911383
0.01496955291276982	1.859736906467264e-26	3.342226606744387e6	1.6563351327760164e22	0.9982935195378936	3.0165563881577935	0.2848641392357272	0.999495024911383
0.015031304576188417	1.8906832830937132e-26	3.342226606744387e6	1.6563351327760164e22	0.9982935195378936	3.0165563881577935	0.2848641392357272	0.999495024911383
0.015093310974531779	1.9213942599742426e-26	3.342226606744387e6	1.6563351327760164e22	0.9982935195378936	3.0165563881577935	0.2848641392357272	0.999495024911383
0.015155573158619883	1.9518153123091623e-26	3.342226606744387e6	1.6563351327760164e22	0.9982935195378936	3.0165563881577935	0.2848641392357272	0.999495024911383
0.015218092183607508	1.9829256262252865e-26	3.342226606744387e6	1.6563351327760164e22	0.9982935195378936	3.0165563881577935	0.2848641392357272	0.999495024911383
0.015280869109002096	2.015733329320822e-26	3.342226606744387e6	1.6563351327760164e22	0.9982935195378936	3.0165563881577935	0.2848641392357272	0.999495024911383
0.015343904998681726	2.0502496785782066e-26	3.342226606744387e6	1.6563351327760164e22	0.9982935195378936	3.0165563881577935	0.2848641392357272	0.999495024911383
0.015407200920913189	2.0864859042731666e-26	3.342226606744387e6	1.6563351327760164e22	0.9982935195378936	3.0165563881577935	0.2848641392357272	0.999495024911383
0.015470757948369857	2.1244532079136322e-26	3.342226606744387e6	1.6563351327760164e22	0.9982935195378936	3.0165563881577935	0.2848641392357272	0.999495024911383
0.015534577158150221	2.1641627601377185e-26	3.342226606744387e6	1.6563351327760164e22	0.9982935195378936	3.0165563881577935	0.2848641392357272	0.999495024911383
0.01559865963179591	2.2056256985692188e-26	3.342226606744387e6	1.6563351327760164e22	0.9982935195378936	3.0165563881577935	0.2848641392357272	0.999495024911383
0.01566300645531007	2.2488531256307378e-26	3.342226606744387e6	1.6563351327760164e22	0.9982935195378936	3.0165563881577935	0.2848641392357272	0.999495024911383
0.015727618719175784	2.2938561063133517e-26	3.342226606744387e6	1.6563351327760164e22	0.9982935195378936	3.0165563881577935	0.2848641392357272	0.999495024911383
0.01579249751837453	2.3406456659024088e-26	3.342226606744387e6	1.6563351327760164e22	0.9982935195378936	3.0165563881577935	0.2848641392357272	0.999495024911383
0.015857643952404816	2.3892327876584312e-26	3.342226606744387e6	1.6563351327760164e22	0.9982935195378936	3.0165563881577935	0.2848641392357272	0.999495024911383
0.01592305912530056	2.4396284104526532e-26	3.342226606744387e6	1.6563351327760164e22	0.9982935195378936	3.0165563881577935	0.2848641392357272	0.999495024911383
0.01598874414565018	2.4918434263567137e-26	3.342226606744387e6	1.6563351327760164e22	0.9982935195378936	3.0165563881577935	0.2848641392357272	0.999495024911383
0.016054700126615116	2.5458886781852102e-26	3.342226606744387e6	1.6563351327760164e22	0.9982935195378936	3.0165563881577935	0.2848641392357272	0.999495024911383
0.016120928185948773	2.6017749569908185e-26	3.342226606744387e6	1.6563351327760164e22	0.9982935195378936	3.0165563881577935	0.2848641392357272	0.999495024911383
0.016187429446015457	2.659512999511136e-26	3.342226606744387e6	1.6563351327760164e22	0.9982935195378936	3.0165563881577935	0.2848641392357272	0.999495024911383
0.016254205033809394	2.719113485566524e-26	3.342226606744387e6	1.6563351327760164e22	0.9982935195378936	3.0165563881577935	0.2848641392357272	0.999495024911383
0.016321256080973897	2.78058703540813e-26	3.342226606744387e6	1.6563351327760164e22	0.9982935195378936	3.0165563881577935	0.2848641392357272	0.999495024911383
0.016388583723820283	2.843944207015115e-26	3.342226606744387e6	1.6563351327760164e22	0.9982935195378936	3.0165563881577935	0.2848641392357272	0.999495024911383
0.01645618910334752	2.909195493341091e-26	3.342226606744387e6	1.6563351327760164e22	0.9982935195378936	3.0165563881577935	0.2848641392357272	0.999495024911383
0.0165240733652613	2.976351319507868e-26	3.342226606744387e6	1.6563351327760164e22	0.9982935195378936	3.0165563881577935	0.2848641392357272	0.999495024911383
0.016592237659993535	3.0454220399465507e-26	3.342226606744387e6	1.6563351327760164e22	0.9982935195378936	3.0165563881577935	0.2848641392357272	0.999495024911383
