r[m]	M[Msun]	rho[g/cm^3]	P[N/m^2]	n_e[pm^-3]	n_p[pm^-3]	muF_e[MeV]	B
0.009999999999999988	-7.261491334413452e-40	1.0423272417927107e8	2.2356738864271884e24	30.97226327173747	31.341927199461807	1.4731767601481718	0.997640366223399
0.010039806873685818	2.6630559224724627e-27	1.0423272417927107e8	2.2356738864271884e24	30.97226327173747	31.341927199461807	1.4731767601481718	0.997640366223399
0.010079772206090914	5.4148621488536974e-27	1.0423272417927107e8	2.2356738864271884e24	30.97226327173747	31.341927199461807	1.4731767601481718	0.997640366223399
0.010119896627989894	8.247892507380176e-27	1.0423272417927107e8	2.2356738864271884e24	30.97226327173747	31.341927199461807	1.4731767601481718	0.997640366223399
0.0101601807726683	1.1154426064167512e-26	1.0423272417927107e8	2.2356738864271884e24	30.97226327173747	31.341927199461807	1.4731767601481718	0.997640366223399
0.010200625275932582	1.4126543810948554e-26	1.0423272417927107e8	2.2356738864271884e24	30.97226327173747	31.341927199461807	1.4731767601481718	0.997640366223399
0.010241230776120094	1.7156125304731686e-26	1.0423272417927107e8	2.2356738864271884e24	30.97226327173747	31.341927199461807	1.4731767601481718	0.997640366223399
0.010281997914109341	2.0234845258751445e-26	1.0423272417927107e8	2.2356738864271884e24	30.97226327173747	31.341927199461807	1.4731767601481718	0.997640366223399
0.010322927333329833	2.3354170084008943e-26	1.0423272417927107e8	2.2356738864271884e24	30.97226327173747	31.341927199461807	1.4731767601481718	0.997640366223399
0.010364019679772421	2.6505354380806955e-26	1.0423272417927107e8	2.2356738864271884e24	30.97226327173747	31.341927199461807	1.4731767601481718	0.997640366223399
0.010405275601999437	2.967943737955646e-26	1.0423272417927107e8	2.2356738864271884e24	30.97226327173747	31.341927199461807	1.4731767601481718	0.997640366223399
0.010446695751154943	3.2867239330198685e-26	1.0423272417927107e8	2.2356738864271884e24	30.97226327173747	31.341927199461807	1.4731767601481718	0.997640366223399
0.010488280780974996	3.60593578395493e-26	1.0423272417927107e8	2.2356738864271884e24	30.97226327173747	31.341927199461807	1.4731767601481718	0.997640366223399
0.010530031347797975	3.924616415586819e-26	1.0423272417927107e8	2.2356738864271884e24	30.97226327173747	31.341927199461807	1.4731767601481718	0.997640366223399
0.01057194811057494	4.241779939995057e-26	1.0423272417927107e8	2.2356738864271884e24	30.97226327173747	31.341927199461807	1.4731767601481718	0.997640366223399
0.010614031730880021	4.55641707420208e-26	1.0423272417927107e8	2.2356738864271884e24	30.97226327173747	31.341927199461807	1.4731767601481718	0.997640366223399
0.010656282872920874	4.874644609389612e-26	1.0423272417927107e8	2.2356738864271884e24	30.97226327173747	31.341927199461807	1.4731767601481718	0.997640366223399
0.01069870220354916	5.203429943326361e-26	1.0423272417927107e8	2.2356738864271884e24	30.97226327173747	31.341927199461807	1.4731767601481718	0.997640366223399
0.010741290392271015	5.541817329816581e-26	1.0423272417927107e8	2.2356738864271884e24	30.97226327173747	31.341927199461807	1.4731767601481718	0.997640366223399
0.010784048111257811	5.888820818312719e-26	1.0423272417927107e8	2.2356738864271884e24	30.97226327173747	31.341927199461807	1.4731767601481718	0.997640366223399
0.010826976035356487	6.243429290753827e-26	1.0423272417927107e8	2.2356738864271884e24	30.97226327173747	31.341927199461807	1.4731767601481718	0.997640366223399
0.010870074842100383	6.604606035187741e-26	1.0423272417927107e8	2.2356738864271884e24	30.97226327173747	31.341927199461807	1.4731767601481718	0.997640366223399
0.010913345211719886	6.971288313212703e-26	1.0423272417927107e8	2.2356738864271884e24	30.97226327173747	31.341927199461807	1.4731767601481718	0.997640366223399
0.010956787827153166	7.342386921157849e-26	1.0423272417927107e8	2.2356738864271884e24	30.97226327173747	31.341927199461807	1.4731767601481718	0.997640366223399
0.01100040337405696	7.716785744918449e-26	1.0423272417927107e8	2.2356738864271884e24	30.97226327173747	31.341927199461807	1.4731767601481718	0.997640366223399
0.011044192540817387	8.093341308360304e-26	1.0423272417927107e8	2.2356738864271884e24	30.97226327173747	31.341927199461807	1.4731767601481718	0.997640366223399
0.011088156018560818	8.470882315207869e-26	1.0423272417927107e8	2.2356738864271884e24	30.97226327173747	31.341927199461807	1.4731767601481718	0.997640366223399
0.011132294501164782	8.848209184328448e-26	1.0423272417927107e8	2.2356738864271884e24	30.97226327173747	31.341927199461807	1.4731767601481718	0.997640366223399
0.011176608685268916	9.224093578324209e-26	1.0423272417927107e8	2.2356738864271884e24	30.97226327173747	31.341927199461807	1.4731767601481718	0.997640366223399
0.011221099270285917	9.597277925342378e-26	1.0423272417927107e8	2.2356738864271884e24	30.97226327173747	31.341927199461807	1.4731767601481718	0.997640366223399
0.011265766958412759	9.972246270108902e-26	1.0423272417927107e8	2.2356738864271884e24	30.97226327173747	31.341927199461807	1.4731767601481718	0.997640366223399
0.011310612454641515	1.036030137378786e-25	1.0423272417927107e8	2.2356738864271884e24	30.97226327173747	31.341927199461807	1.4731767601481718	0.997640366223399
0.011355636466770645	1.0761290090748292e-25	1.0423272417927107e8	2.2356738864271884e24	30.97226327173747	31.341927199461807	1.4731767601481718	0.997640366223399
0.01140083970541614	1.1174656179745346e-25	1.0423272417927107e8	2.2356738864271884e24	30.97226327173747	31.341927199461807	1.4731767601481718	0.997640366223399
0.011446222884022732	1.1599827961638394e-25	1.0423272417927107e8	2.2356738864271884e24	30.97226327173747	31.341927199461807	1.4731767601481718	0.997640366223399
0.011491786718875147	1.203621805202733e-25	1.0423272417927107e8	2.2356738864271884e24	30.97226327173747	31.341927199461807	1.4731767601481718	0.997640366223399
0.011537531929109423	1.2483223089978333e-25	1.0423272417927107e8	2.2356738864271884e24	30.97226327173747	31.341927199461807	1.4731767601481718	0.997640366223399
0.011583459236724256	1.2940223462785755e-25	1.0423272417927107e8	2.2356738864271884e24	30.97226327173747	31.341927199461807	1.4731767601481718	0.997640366223399
0.011629569366592379	1.3406583026716823e-25	1.0423272417927107e8	2.2356738864271884e24	30.97226327173747	31.341927199461807	1.4731767601481718	0.997640366223399
0.011675863046472034	1.3881648823685914e-25	1.0423272417927107e8	2.2356738864271884e24	30.97226327173747	31.341927199461807	1.4731767601481718	0.997640366223399
0.011722341007018433	1.4364750793802172e-25	1.0423272417927107e8	2.2356738864271884e24	30.97226327173747	31.341927199461807	1.4731767601481718	0.997640366223399
0.011769003981795246	1.485520148373578e-25	1.0423272417927107e8	2.2356738864271884e24	30.97226327173747	31.341927199461807	1.4731767601481718	0.997640366223399
0.011815852707286382	1.5352295750849164e-25	1.0423272417927107e8	2.2356738864271884e24	30.97226327173747	31.341927199461807	1.4731767601481718	0.997640366223399
0.011862887922907317	1.5855310463028438e-25	1.0423272417927107e8	2.2356738864271884e24	30.97226327173747	31.341927199461807	1.4731767601481718	0.997640366223399
0.01191011037101695	1.6363504194168066e-25	1.0423272417927107e8	2.2356738864271884e24	30.97226327173747	31.341927199461807	1.4731767601481718	0.997640366223399
0.011957520796929287	1.6876116915242443e-25	1.0423272417927107e8	2.2356738864271884e24	30.97226327173747	31.341927199461807	1.4731767601481718	0.997640366223399
0.012005119948925193	1.7392369680908188e-25	1.0423272417927107e8	2.2356738864271884e24	30.97226327173747	31.341927199461807	1.4731767601481718	0.997640366223399
0.012052908578264205	1.7911464311577117e-25	1.0423272417927107e8	2.2356738864271884e24	30.97226327173747	31.341927199461807	1.4731767601481718	0.997640366223399
0.012100887439196389	1.8432583070898832e-25	1.0423272417927107e8	2.2356738864271884e24	30.97226327173747	31.341927199461807	1.4731767601481718	0.997640366223399
0.012149057288974243	1.8954888338591784e-25	1.0423272417927107e8	2.2356738864271884e24	30.97226327173747	31.341927199461807	1.4731767601481718	0.997640366223399
0.012197418887864657	1.9477522278560376e-25	1.0423272417927107e8	2.2356738864271884e24	30.97226327173747	31.341927199461807	1.4731767601481718	0.997640366223399
0.012245972999160895	1.9999606502235102e-25	1.0423272417927107e8	2.2356738864271884e24	30.97226327173747	31.341927199461807	1.4731767601481718	0.997640366223399
0.012294720389194614	2.0520241727071514e-25	1.0423272417927107e8	2.2356738864271884e24	30.97226327173747	31.341927199461807	1.4731767601481718	0.997640366223399
0.012343661827348142	2.103850743014629e-25	1.0423272417927107e8	2.2356738864271884e24	30.97226327173747	31.341927199461807	1.4731767601481718	0.997640366223399
0.01239279808606633	2.1553461496777027e-25	1.0423272417927107e8	2.2356738864271884e24	30.97226327173747	31.341927199461807	1.4731767601481718	0.997640366223399
0.012442129940868935	2.2064139864110198e-25	1.0423272417927107e8	2.2356738864271884e24	30.97226327173747	31.341927199461807	1.4731767601481718	0.997640366223399
0.01249165817036282	2.257435864283487e-25	1.0423272417927107e8	2.2356738864271884e24	30.97226327173747	31.341927199461807	1.4731767601481718	0.997640366223399
0.012541383556254242	2.310123671725545e-25	1.0423272417927107e8	2.2356738864271884e24	30.97226327173747	31.341927199461807	1.4731767601481718	0.997640366223399
0.01259130688336118	2.3645659527761266e-25	1.0423272417927107e8	2.2356738864271884e24	30.97226327173747	31.341927199461807	1.4731767601481718	0.997640366223399
0.012641428939625728	2.4206768885449783e-25	1.0423272417927107e8	2.2356738864271884e24	30.97226327173747	31.341927199461807	1.4731767601481718	0.997640366223399
0.012691750516126537	2.4783683177935723e-25	1.0423272417927107e8	2.2356738864271884e24	30.97226327173747	31.341927199461807	1.4731767601481718	0.997640366223399
0.01274227240709129	2.5375496965386647e-25	1.0423272417927107e8	2.2356738864271884e24	30.97226327173747	31.341927199461807	1.4731767601481718	0.997640366223399
0.012792995409909243	2.5981280570659984e-25	1.0423272417927107e8	2.2356738864271884e24	30.97226327173747	31.341927199461807	1.4731767601481718	0.997640366223399
0.01284392032514381	2.6600079663461676e-25	1.0423272417927107e8	2.2356738864271884e24	30.97226327173747	31.341927199461807	1.4731767601481718	0.997640366223399
0.012895047956545145	2.723091483844615e-25	1.0423272417927107e8	2.2356738864271884e24	30.97226327173747	31.341927199461807	1.4731767601481718	0.997640366223399
0.012946379111063038	2.787278118717896e-25	1.0423272417927107e8	2.2356738864271884e24	30.97226327173747	31.341927199461807	1.4731767601481718	0.997640366223399
0.012997914598859335	2.8524647863870717e-25	1.0423272417927107e8	2.2356738864271884e24	30.97226327173747	31.341927199461807	1.4731767601481718	0.997640366223399
0.013049655233320936	2.918545764481146e-25	1.0423272417927107e8	2.2356738864271884e24	30.97226327173747	31.341927199461807	1.4731767601481718	0.997640366223399
0.013101601831072581	2.9854126481410544e-25	1.0423272417927107e8	2.2356738864271884e24	30.97226327173747	31.341927199461807	1.4731767601481718	0.997640366223399
0.013153755211989738	3.052954304676088e-25	1.0423272417927107e8	2.2356738864271884e24	30.97226327173747	31.341927199461807	1.4731767601481718	0.997640366223399
0.013206116199211538	3.1210568275639625e-25	1.0423272417927107e8	2.2356738864271884e24	30.97226327173747	31.341927199461807	1.4731767601481718	0.997640366223399
0.01325868561915378	3.189603489785756e-25	1.0423272417927107e8	2.2356738864271884e24	30.97226327173747	31.341927199461807	1.4731767601481718	0.997640366223399
0.01331146430152196	3.2584746964867627e-25	1.0423272417927107e8	2.2356738864271884e24	30.97226327173747	31.341927199461807	1.4731767601481718	0.997640366223399
0.013364453079324374	3.327547936954275e-25	1.0423272417927107e8	2.2356738864271884e24	30.97226327173747	31.341927199461807	1.4731767601481718	0.997640366223399
0.013417652788885261	3.396697735903163e-25	1.0423272417927107e8	2.2356738864271884e24	30.97226327173747	31.341927199461807	1.4731767601481718	0.997640366223399
0.013471064269857955	3.4657956040598728e-25	1.0423272417927107e8	2.2356738864271884e24	30.97226327173747	31.341927199461807	1.4731767601481718	0.997640366223399
0.01352468836523835	3.534709988035932e-25	1.0423272417927107e8	2.2356738864271884e24	30.97226327173747	31.341927199461807	1.4731767601481718	0.997640366223399
0.013578525921377878	3.603306219480385e-25	1.0423272417927107e8	2.2356738864271884e24	30.97226327173747	31.341927199461807	1.4731767601481718	0.997640366223399
0.013632577787997084	3.671446463502946e-25	1.0423272417927107e8	2.2356738864271884e24	30.97226327173747	31.341927199461807	1.4731767601481718	0.997640366223399
0.013686844818198991	3.7389896663571112e-25	1.0423272417927107e8	2.2356738864271884e24	30.97226327173747	31.341927199461807	1.4731767601481718	0.997640366223399
0.013741327868482553	3.8065764887980807e-25	1.0423272417927107e8	2.2356738864271884e24	30.97226327173747	31.341927199461807	1.4731767601481718	0.997640366223399
0.01379602779875618	3.8752075162609077e-25	1.0423272417927107e8	2.2356738864271884e24	30.97226327173747	31.341927199461807	1.4731767601481718	0.997640366223399
0.01385094547235131	3.9448983745915594e-25	1.0423272417927107e8	2.2356738864271884e24	30.97226327173747	31.341927199461807	1.4731767601481718	0.997640366223399
0.013906081756036031	4.015659557784008e-25	1.0423272417927107e8	2.2356738864271884e24	30.97226327173747	31.341927199461807	1.4731767601481718	0.997640366223399
0.013961437520028768	4.087501651663711e-25	1.0423272417927107e8	2.2356738864271884e24	30.97226327173747	31.341927199461807	1.4731767601481718	0.997640366223399
0.01401701363801201	4.160435334652471e-25	1.0423272417927107e8	2.2356738864271884e24	30.97226327173747	31.341927199461807	1.4731767601481718	0.997640366223399
0.0140728109871461	4.234471378539542e-25	1.0423272417927107e8	2.2356738864271884e24	30.97226327173747	31.341927199461807	1.4731767601481718	0.997640366223399
0.014128830448083033	4.309620649258957e-25	1.0423272417927107e8	2.2356738864271884e24	30.97226327173747	31.341927199461807	1.4731767601481718	0.997640366223399
0.01418507290498057	4.385894107673547e-25	1.0423272417927107e8	2.2356738864271884e24	30.97226327173747	31.341927199461807	1.4731767601481718	0.997640366223399
0.014241539245515855	4.463302810364595e-25	1.0423272417927107e8	2.2356738864271884e24	30.97226327173747	31.341927199461807	1.4731767601481718	0.997640366223399
0.014298230360899661	4.54185791042861e-25	1.0423272417927107e8	2.2356738864271884e24	30.97226327173747	31.341927199461807	1.4731767601481718	0.997640366223399
0.014355147145890385	4.621570658280402e-25	1.0423272417927107e8	2.2356738864271884e24	30.97226327173747	31.341927199461807	1.4731767601481718	0.997640366223399
0.014412290498808183	4.7024524024625e-25	1.0423272417927107e8	2.2356738864271884e24	30.97226327173747	31.341927199461807	1.4731767601481718	0.997640366223399
0.01446966132154914	4.784514590461388e-25	1.0423272417927107e8	2.2356738864271884e24	30.97226327173747	31.341927199461807	1.4731767601481718	0.997640366223399
0.014527260519599506	4.867768769530267e-25	1.0423272417927107e8	2.2356738864271884e24	30.97226327173747	31.341927199461807	1.4731767601481718	0.997640366223399
0.014585089002049991	4.952226587518545e-25	1.0423272417927107e8	2.2356738864271884e24	30.97226327173747	31.341927199461807	1.4731767601481718	0.997640366223399
0.01464314768161011	5.037899793708073e-25	1.0423272417927107e8	2.2356738864271884e24	30.97226327173747	31.341927199461807	1.4731767601481718	0.997640366223399
0.014701437474622594	5.124800239656215e-25	1.0423272417927107e8	2.2356738864271884e24	30.97226327173747	31.341927199461807	1.4731767601481718	0.997640366223399
0.014759959301077779	5.21293988004561e-25	1.0423272417927107e8	2.2356738864271884e24	30.97226327173747	31.341927199461807	1.4731767601481718	0.997640366223399
0.01481871408462838	5.3023307735414045e-25	1.0423272417927107e8	2.2356738864271884e24	30.97226327173747	31.341927199461807	1.4731767601481718	0.997640366223399
0.014877702752603703	5.392985083654479e-25	1.0423272417927107e8	2.2356738864271884e24	30.97226327173747	31.341927199461807	1.4731767601481718	0.997640366223399
0.014936926236024528	5.484915079612641e-25	1.0423272417927107e8	2.2356738864271884e24	30.97226327173747	31.341927199461807	1.4731767601481718	0.997640366223399
0.014996385469617728	5.578133137238406e-25	1.0423272417927107e8	2.2356738864271884e24	30.97226327173747	31.341927199461807	1.4731767601481718	0.997640366223399
0.015056081391831037	5.67265173983408e-25	1.0423272417927107e8	2.2356738864271884e24	30.97226327173747	31.341927199461807	1.4731767601481718	0.997640366223399
0.015116014944847858	5.7684834790739535e-25	1.0423272417927107e8	2.2356738864271884e24	30.97226327173747	31.341927199461807	1.4731767601481718	0.997640366223399
0.015176187074602129	5.865641055903852e-25	1.0423272417927107e8	2.2356738864271884e24	30.97226327173747	31.341927199461807	1.4731767601481718	0.997640366223399
0.015236598730793251	5.964137281447923e-25	1.0423272417927107e8	2.2356738864271884e24	30.97226327173747	31.341927199461807	1.4731767601481718	0.997640366223399
0.01529725086690109	6.063985077922799e-25	1.0423272417927107e8	2.2356738864271884e24	30.97226327173747	31.341927199461807	1.4731767601481718	0.997640366223399
0.015358144440201008	6.165197479559262e-25	1.0423272417927107e8	2.2356738864271884e24	30.97226327173747	31.341927199461807	1.4731767601481718	0.997640366223399
0.015419280411778992	6.267787633531319e-25	1.0423272417927107e8	2.2356738864271884e24	30.97226327173747	31.341927199461807	1.4731767601481718	0.997640366223399
0.015480659746546738	6.371768800892784e-25	1.0423272417927107e8	2.2356738864271884e24	30.97226327173747	31.341927199461807	1.4731767601481718	0.997640366223399
0.01554228341325715	6.477154357521969e-25	1.0423272417927107e8	2.2356738864271884e24	30.97226327173747	31.341927199461807	1.4731767601481718	0.997640366223399
0.01560415238451924	6.583957795073003e-25	1.0423272417927107e8	2.2356738864271884e24	30.97226327173747	31.341927199461807	1.4731767601481718	0.997640366223399
0.01566626763681374	6.692192721935952e-25	1.0423272417927107e8	2.2356738864271884e24	30.97226327173747	31.341927199461807	1.4731767601481718	0.997640366223399
0.01572863015050845	6.801872864204209e-25	1.0423272417927107e8	2.2356738864271884e24	30.97226327173747	31.341927199461807	1.4731767601481718	0.997640366223399
0.015791240909873695	6.91301206664984e-25	1.0423272417927107e8	2.2356738864271884e24	30.97226327173747	31.341927199461807	1.4731767601481718	0.997640366223399
0.01585410090309788	7.025624293706839e-25	1.0423272417927107e8	2.2356738864271884e24	30.97226327173747	31.341927199461807	1.4731767601481718	0.997640366223399
0.015917211122303085	7.139723630462464e-25	1.0423272417927107e8	2.2356738864271884e24	30.97226327173747	31.341927199461807	1.4731767601481718	0.997640366223399
0.015980572563560707	7.255324283656491e-25	1.0423272417927107e8	2.2356738864271884e24	30.97226327173747	31.341927199461807	1.4731767601481718	0.997640366223399
0.0160441862269072	7.372440582688681e-25	1.0423272417927107e8	2.2356738864271884e24	30.97226327173747	31.341927199461807	1.4731767601481718	0.997640366223399
0.016108053116359843	7.491086980634401e-25	1.0423272417927107e8	2.2356738864271884e24	30.97226327173747	31.341927199461807	1.4731767601481718	0.997640366223399
0.0161721742399326	7.61127805526852e-25	1.0423272417927107e8	2.2356738864271884e24	30.97226327173747	31.341927199461807	1.4731767601481718	0.997640366223399
0.01623655060965196	7.733028510097441e-25	1.0423272417927107e8	2.2356738864271884e24	30.97226327173747	31.341927199461807	1.4731767601481718	0.997640366223399
0.01630118324157316	7.856353175400182e-25	1.0423272417927107e8	2.2356738864271884e24	30.97226327173747	31.341927199461807	1.4731767601481718	0.997640366223399
