r[m]	M[Msun]	rho[g/cm^3]	P[N/m^2]	n_e[pm^-3]	n_p[pm^-3]	muF_e[MeV]	B
0.009999999999999981	-1.8557144521278822e-39	1.6053532585382524e8	4.0321444050239324e24	47.68943932527508	48.26599705297378	1.7611319653270132	0.9972159141608721
0.010039607198097789	4.079781514960846e-27	1.6053532585382524e8	4.0321444050239324e24	47.68943932527508	48.26599705297378	1.7611319653270132	0.9972159141608721
0.010079371269209752	8.291191749103518e-27	1.6053532585382524e8	4.0321444050239324e24	47.68943932527508	48.26599705297378	1.7611319653270132	0.9972159141608721
0.010119292834665845	1.2619753770747724e-26	1.6053532585382524e8	4.0321444050239324e24	47.68943932527508	48.26599705297378	1.7611319653270132	0.9972159141608721
0.01015937251825712	1.705062441407927e-26	1.6053532585382524e8	4.0321444050239324e24	47.68943932527508	48.26599705297378	1.7611319653270132	0.9972159141608721
0.010199610946245122	2.1568588112024742e-26	1.6053532585382524e8	4.0321444050239324e24	47.68943932527508	48.26599705297378	1.7611319653270132	0.9972159141608721
0.010240008747372013	2.615805064032307e-26	1.6053532585382524e8	4.0321444050239324e24	47.68943932527508	48.26599705297378	1.7611319653270132	0.9972159141608721
0.010280566552870057	3.080303277145551e-26	1.6053532585382524e8	4.0321444050239324e24	47.68943932527508	48.26599705297378	1.7611319653270132	0.9972159141608721
0.01032128499647182	3.548716383738728e-26	1.6053532585382524e8	4.0321444050239324e24	47.68943932527508	48.26599705297378	1.7611319653270132	0.9972159141608721
0.010362164714419737	4.0193675199747364e-26	1.6053532585382524e8	4.0321444050239324e24	47.68943932527508	48.26599705297378	1.7611319653270132	0.9972159141608721
0.010403206345476392	4.490539362637428e-26	1.6053532585382524e8	4.0321444050239324e24	47.68943932527508	48.26599705297378	1.7611319653270132	0.9972159141608721
0.010444410530934157	4.9604734572818544e-26	1.6053532585382524e8	4.0321444050239324e24	47.68943932527508	48.26599705297378	1.7611319653270132	0.9972159141608721
0.010485777914625554	5.427369536769897e-26	1.6053532585382524e8	4.0321444050239324e24	47.68943932527508	48.26599705297378	1.7611319653270132	0.9972159141608721
0.010527309142932971	5.895814591142647e-26	1.6053532585382524e8	4.0321444050239324e24	47.68943932527508	48.26599705297378	1.7611319653270132	0.9972159141608721
0.010569004864799116	6.379155594141049e-26	1.6053532585382524e8	4.0321444050239324e24	47.68943932527508	48.26599705297378	1.7611319653270132	0.9972159141608721
0.010610865731736793	6.87627158964397e-26	1.6053532585382524e8	4.0321444050239324e24	47.68943932527508	48.26599705297378	1.7611319653270132	0.9972159141608721
0.01065289239783945	7.385364718107841e-26	1.6053532585382524e8	4.0321444050239324e24	47.68943932527508	48.26599705297378	1.7611319653270132	0.9972159141608721
0.010695085519791035	7.904592075251084e-26	1.6053532585382524e8	4.0321444050239324e24	47.68943932527508	48.26599705297378	1.7611319653270132	0.9972159141608721
0.010737445756876613	8.432064955631567e-26	1.6053532585382524e8	4.0321444050239324e24	47.68943932527508	48.26599705297378	1.7611319653270132	0.9972159141608721
0.01077997377099232	8.965848085327021e-26	1.6053532585382524e8	4.0321444050239324e24	47.68943932527508	48.26599705297378	1.7611319653270132	0.9972159141608721
0.01082267022665605	9.503958843590727e-26	1.6053532585382524e8	4.0321444050239324e24	47.68943932527508	48.26599705297378	1.7611319653270132	0.9972159141608721
0.01086553579101749	1.0044366473317866e-25	1.6053532585382524e8	4.0321444050239324e24	47.68943932527508	48.26599705297378	1.7611319653270132	0.9972159141608721
0.0109085711338689	1.058499128019119e-25	1.6053532585382524e8	4.0321444050239324e24	47.68943932527508	48.26599705297378	1.7611319653270132	0.9972159141608721
0.010951776927655215	1.11237038203374e-25	1.6053532585382524e8	4.0321444050239324e24	47.68943932527508	48.26599705297378	1.7611319653270132	0.9972159141608721
0.010995153847484923	1.165842165086661e-25	1.6053532585382524e8	4.0321444050239324e24	47.68943932527508	48.26599705297378	1.7611319653270132	0.9972159141608721
0.011038702571140242	1.2202155030445017e-25	1.6053532585382524e8	4.0321444050239324e24	47.68943932527508	48.26599705297378	1.7611319653270132	0.9972159141608721
0.01108242377908808	1.2764548859559958e-25	1.6053532585382524e8	4.0321444050239324e24	47.68943932527508	48.26599705297378	1.7611319653270132	0.9972159141608721
0.011126318154490299	1.334462242890909e-25	1.6053532585382524e8	4.0321444050239324e24	47.68943932527508	48.26599705297378	1.7611319653270132	0.9972159141608721
0.01117038638321471	1.394136863046002e-25	1.6053532585382524e8	4.0321444050239324e24	47.68943932527508	48.26599705297378	1.7611319653270132	0.9972159141608721
0.01121462915384566	1.455375350546578e-25	1.6053532585382524e8	4.0321444050239324e24	47.68943932527508	48.26599705297378	1.7611319653270132	0.9972159141608721
0.01125904715769464	1.5180715785919308e-25	1.6053532585382524e8	4.0321444050239324e24	47.68943932527508	48.26599705297378	1.7611319653270132	0.9972159141608721
0.011303641088811423	1.5821166429366364e-25	1.6053532585382524e8	4.0321444050239324e24	47.68943932527508	48.26599705297378	1.7611319653270132	0.9972159141608721
0.011348411643994529	1.6473988146970946e-25	1.6053532585382524e8	4.0321444050239324e24	47.68943932527508	48.26599705297378	1.7611319653270132	0.9972159141608721
0.011393359522802491	1.713803492476421e-25	1.6053532585382524e8	4.0321444050239324e24	47.68943932527508	48.26599705297378	1.7611319653270132	0.9972159141608721
0.01143848542756441	1.7812131537963576e-25	1.6053532585382524e8	4.0321444050239324e24	47.68943932527508	48.26599705297378	1.7611319653270132	0.9972159141608721
0.011483790063391298	1.849507305829179e-25	1.6053532585382524e8	4.0321444050239324e24	47.68943932527508	48.26599705297378	1.7611319653270132	0.9972159141608721
0.011529274138186734	1.9185624354179961e-25	1.6053532585382524e8	4.0321444050239324e24	47.68943932527508	48.26599705297378	1.7611319653270132	0.9972159141608721
0.011574938362658289	1.9882519583782302e-25	1.6053532585382524e8	4.0321444050239324e24	47.68943932527508	48.26599705297378	1.7611319653270132	0.9972159141608721
0.01162078345032826	2.058446168068359e-25	1.6053532585382524e8	4.0321444050239324e24	47.68943932527508	48.26599705297378	1.7611319653270132	0.9972159141608721
0.011666810117545195	2.1290121832225473e-25	1.6053532585382524e8	4.0321444050239324e24	47.68943932527508	48.26599705297378	1.7611319653270132	0.9972159141608721
0.011713019083494706	2.1998138950329445e-25	1.6053532585382524e8	4.0321444050239324e24	47.68943932527508	48.26599705297378	1.7611319653270132	0.9972159141608721
0.011759411070211091	2.2707119134740583e-25	1.6053532585382524e8	4.0321444050239324e24	47.68943932527508	48.26599705297378	1.7611319653270132	0.9972159141608721
0.01180598680258823	2.341563512856695e-25	1.6053532585382524e8	4.0321444050239324e24	47.68943932527508	48.26599705297378	1.7611319653270132	0.9972159141608721
0.011852747008391298	2.4122225766036505e-25	1.6053532585382524e8	4.0321444050239324e24	47.68943932527508	48.26599705297378	1.7611319653270132	0.9972159141608721
0.011899692418267752	2.4825395412343697e-25	1.6053532585382524e8	4.0321444050239324e24	47.68943932527508	48.26599705297378	1.7611319653270132	0.9972159141608721
0.011946823765759132	2.5523613395505005e-25	1.6053532585382524e8	4.0321444050239324e24	47.68943932527508	48.26599705297378	1.7611319653270132	0.9972159141608721
0.011994141787312132	2.621627117205335e-25	1.6053532585382524e8	4.0321444050239324e24	47.68943932527508	48.26599705297378	1.7611319653270132	0.9972159141608721
0.012041647222290508	2.692448905021039e-25	1.6053532585382524e8	4.0321444050239324e24	47.68943932527508	48.26599705297378	1.7611319653270132	0.9972159141608721
0.012089340812986224	2.765644747337419e-25	1.6053532585382524e8	4.0321444050239324e24	47.68943932527508	48.26599705297378	1.7611319653270132	0.9972159141608721
0.012137223304631458	2.841073475518167e-25	1.6053532585382524e8	4.0321444050239324e24	47.68943932527508	48.26599705297378	1.7611319653270132	0.9972159141608721
0.012185295445409843	2.918590172253907e-25	1.6053532585382524e8	4.0321444050239324e24	47.68943932527508	48.26599705297378	1.7611319653270132	0.9972159141608721
0.012233557986468559	2.9980461076073697e-25	1.6053532585382524e8	4.0321444050239324e24	47.68943932527508	48.26599705297378	1.7611319653270132	0.9972159141608721
0.012282011681929666	3.079288674130389e-25	1.6053532585382524e8	4.0321444050239324e24	47.68943932527508	48.26599705297378	1.7611319653270132	0.9972159141608721
0.012330657288902293	3.1621613210428466e-25	1.6053532585382524e8	4.0321444050239324e24	47.68943932527508	48.26599705297378	1.7611319653270132	0.9972159141608721
0.012379495567494065	3.2465034874584584e-25	1.6053532585382524e8	4.0321444050239324e24	47.68943932527508	48.26599705297378	1.7611319653270132	0.9972159141608721
0.01242852728082333	3.332150534647209e-25	1.6053532585382524e8	4.0321444050239324e24	47.68943932527508	48.26599705297378	1.7611319653270132	0.9972159141608721
0.012477753195030939	3.418933677319447e-25	1.6053532585382524e8	4.0321444050239324e24	47.68943932527508	48.26599705297378	1.7611319653270132	0.9972159141608721
0.01252717407929205	3.5066799139194227e-25	1.6053532585382524e8	4.0321444050239324e24	47.68943932527508	48.26599705297378	1.7611319653270132	0.9972159141608721
0.012576790705828527	3.5952119559159962e-25	1.6053532585382524e8	4.0321444050239324e24	47.68943932527508	48.26599705297378	1.7611319653270132	0.9972159141608721
0.012626603849920566	3.6843481560748247e-25	1.6053532585382524e8	4.0321444050239324e24	47.68943932527508	48.26599705297378	1.7611319653270132	0.9972159141608721
0.012676614289919253	3.773902435701322e-25	1.6053532585382524e8	4.0321444050239324e24	47.68943932527508	48.26599705297378	1.7611319653270132	0.9972159141608721
0.012726822807258283	3.8636842108377197e-25	1.6053532585382524e8	4.0321444050239324e24	47.68943932527508	48.26599705297378	1.7611319653270132	0.9972159141608721
0.012777230186466614	3.9534983174032773e-25	1.6053532585382524e8	4.0321444050239324e24	47.68943932527508	48.26599705297378	1.7611319653270132	0.9972159141608721
0.01282783721518028	4.04314493526055e-25	1.6053532585382524e8	4.0321444050239324e24	47.68943932527508	48.26599705297378	1.7611319653270132	0.9972159141608721
0.012878644684155139	4.1324195111965314e-25	1.6053532585382524e8	4.0321444050239324e24	47.68943932527508	48.26599705297378	1.7611319653270132	0.9972159141608721
0.012929653387278797	4.22111268080111e-25	1.6053532585382524e8	4.0321444050239324e24	47.68943932527508	48.26599705297378	1.7611319653270132	0.9972159141608721
0.012980864121583445	4.309029953219683e-25	1.6053532585382524e8	4.0321444050239324e24	47.68943932527508	48.26599705297378	1.7611319653270132	0.9972159141608721
0.013032277687257872	4.39741342022361e-25	1.6053532585382524e8	4.0321444050239324e24	47.68943932527508	48.26599705297378	1.7611319653270132	0.9972159141608721
0.013083894887660411	4.487114140591393e-25	1.6053532585382524e8	4.0321444050239324e24	47.68943932527508	48.26599705297378	1.7611319653270132	0.9972159141608721
0.013135716529331055	4.578145008313784e-25	1.6053532585382524e8	4.0321444050239324e24	47.68943932527508	48.26599705297378	1.7611319653270132	0.9972159141608721
0.013187743422004494	4.670519029382469e-25	1.6053532585382524e8	4.0321444050239324e24	47.68943932527508	48.26599705297378	1.7611319653270132	0.9972159141608721
0.013239976378622332	4.764249322716564e-25	1.6053532585382524e8	4.0321444050239324e24	47.68943932527508	48.26599705297378	1.7611319653270132	0.9972159141608721
0.013292416215346223	4.859349121098107e-25	1.6053532585382524e8	4.0321444050239324e24	47.68943932527508	48.26599705297378	1.7611319653270132	0.9972159141608721
0.013345063751570196	4.955831772113591e-25	1.6053532585382524e8	4.0321444050239324e24	47.68943932527508	48.26599705297378	1.7611319653270132	0.9972159141608721
0.013397919809933882	5.053710739104649e-25	1.6053532585382524e8	4.0321444050239324e24	47.68943932527508	48.26599705297378	1.7611319653270132	0.9972159141608721
0.013450985216334938	5.152999602124938e-25	1.6053532585382524e8	4.0321444050239324e24	47.68943932527508	48.26599705297378	1.7611319653270132	0.9972159141608721
0.0135042607999424	5.253712058906302e-25	1.6053532585382524e8	4.0321444050239324e24	47.68943932527508	48.26599705297378	1.7611319653270132	0.9972159141608721
0.013557747393209175	5.355861925831148e-25	1.6053532585382524e8	4.0321444050239324e24	47.68943932527508	48.26599705297378	1.7611319653270132	0.9972159141608721
0.013611445831885517	5.459463138914364e-25	1.6053532585382524e8	4.0321444050239324e24	47.68943932527508	48.26599705297378	1.7611319653270132	0.9972159141608721
0.013665356955031623	5.564529754791507e-25	1.6053532585382524e8	4.0321444050239324e24	47.68943932527508	48.26599705297378	1.7611319653270132	0.9972159141608721
0.013719481605031197	5.671075951716663e-25	1.6053532585382524e8	4.0321444050239324e24	47.68943932527508	48.26599705297378	1.7611319653270132	0.9972159141608721
0.013773820627604166	5.779116030566691e-25	1.6053532585382524e8	4.0321444050239324e24	47.68943932527508	48.26599705297378	1.7611319653270132	0.9972159141608721
0.013828374871820284	5.888664415855242e-25	1.6053532585382524e8	4.0321444050239324e24	47.68943932527508	48.26599705297378	1.7611319653270132	0.9972159141608721
0.013883145190112233	5.999735656753838e-25	1.6053532585382524e8	4.0321444050239324e24	47.68943932527508	48.26599705297378	1.7611319653270132	0.9972159141608721
0.01393813243828877	6.112344428121236e-25	1.6053532585382524e8	4.0321444050239324e24	47.68943932527508	48.26599705297378	1.7611319653270132	0.9972159141608721
0.013993337475548507	6.22650553154229e-25	1.6053532585382524e8	4.0321444050239324e24	47.68943932527508	48.26599705297378	1.7611319653270132	0.9972159141608721
0.014048761164492857	6.34223389637339e-25	1.6053532585382524e8	4.0321444050239324e24	47.68943932527508	48.26599705297378	1.7611319653270132	0.9972159141608721
0.01410440437114	6.4595445807984e-25	1.6053532585382524e8	4.0321444050239324e24	47.68943932527508	48.26599705297378	1.7611319653270132	0.9972159141608721
0.01416026796493793	6.578452772891019e-25	1.6053532585382524e8	4.0321444050239324e24	47.68943932527508	48.26599705297378	1.7611319653270132	0.9972159141608721
0.01421635281877852	6.698973791687898e-25	1.6053532585382524e8	4.0321444050239324e24	47.68943932527508	48.26599705297378	1.7611319653270132	0.9972159141608721
0.01427265980901069	6.821123088268299e-25	1.6053532585382524e8	4.0321444050239324e24	47.68943932527508	48.26599705297378	1.7611319653270132	0.9972159141608721
0.014329189815454559	6.944916246844532e-25	1.6053532585382524e8	4.0321444050239324e24	47.68943932527508	48.26599705297378	1.7611319653270132	0.9972159141608721
0.014385943721414735	7.070368985859249e-25	1.6053532585382524e8	4.0321444050239324e24	47.68943932527508	48.26599705297378	1.7611319653270132	0.9972159141608721
0.014442922413694591	7.197497159093591e-25	1.6053532585382524e8	4.0321444050239324e24	47.68943932527508	48.26599705297378	1.7611319653270132	0.9972159141608721
0.014500126782609635	7.326316756782217e-25	1.6053532585382524e8	4.0321444050239324e24	47.68943932527508	48.26599705297378	1.7611319653270132	0.9972159141608721
0.01455755772200191	7.456843906739531e-25	1.6053532585382524e8	4.0321444050239324e24	47.68943932527508	48.26599705297378	1.7611319653270132	0.9972159141608721
0.014615216129253471	7.589094875492768e-25	1.6053532585382524e8	4.0321444050239324e24	47.68943932527508	48.26599705297378	1.7611319653270132	0.9972159141608721
0.01467310290530089	7.723086069426483e-25	1.6053532585382524e8	4.0321444050239324e24	47.68943932527508	48.26599705297378	1.7611319653270132	0.9972159141608721
0.014731218954648866	7.8588340359341195e-25	1.6053532585382524e8	4.0321444050239324e24	47.68943932527508	48.26599705297378	1.7611319653270132	0.9972159141608721
0.014789565185384821	7.996355464581011e-25	1.6053532585382524e8	4.0321444050239324e24	47.68943932527508	48.26599705297378	1.7611319653270132	0.9972159141608721
0.014848142509192615	8.135667188274625e-25	1.6053532585382524e8	4.0321444050239324e24	47.68943932527508	48.26599705297378	1.7611319653270132	0.9972159141608721
0.014906951841367285	8.2767861844465e-25	1.6053532585382524e8	4.0321444050239324e24	47.68943932527508	48.26599705297378	1.7611319653270132	0.9972159141608721
0.014965994100828833	8.419729576241437e-25	1.6053532585382524e8	4.0321444050239324e24	47.68943932527508	48.26599705297378	1.7611319653270132	0.9972159141608721
0.015025270210137108	8.564514633718623e-25	1.6053532585382524e8	4.0321444050239324e24	47.68943932527508	48.26599705297378	1.7611319653270132	0.9972159141608721
0.015084781095505706	8.711158775060127e-25	1.6053532585382524e8	4.0321444050239324e24	47.68943932527508	48.26599705297378	1.7611319653270132	0.9972159141608721
0.015144527686816943	8.859679567791533e-25	1.6053532585382524e8	4.0321444050239324e24	47.68943932527508	48.26599705297378	1.7611319653270132	0.9972159141608721
0.015204510917635892	9.010094730009998e-25	1.6053532585382524e8	4.0321444050239324e24	47.68943932527508	48.26599705297378	1.7611319653270132	0.9972159141608721
0.015264731725225461	9.16242213162472e-25	1.6053532585382524e8	4.0321444050239324e24	47.68943932527508	48.26599705297378	1.7611319653270132	0.9972159141608721
0.015325191050560549	9.316679795604917e-25	1.6053532585382524e8	4.0321444050239324e24	47.68943932527508	48.26599705297378	1.7611319653270132	0.9972159141608721
0.015385889838343176	9.472885899240225e-25	1.6053532585382524e8	4.0321444050239324e24	47.68943932527508	48.26599705297378	1.7611319653270132	0.9972159141608721
0.015446829037017069	9.631058775409767e-25	1.6053532585382524e8	4.0321444050239324e24	47.68943932527508	48.26599705297378	1.7611319653270132	0.9972159141608721
0.01550800959878228	9.791216913861378e-25	1.6053532585382524e8	4.0321444050239324e24	47.68943932527508	48.26599705297378	1.7611319653270132	0.9972159141608721
0.015569432479610509	9.95337896250279e-25	1.6053532585382524e8	4.0321444050239324e24	47.68943932527508	48.26599705297378	1.7611319653270132	0.9972159141608721
0.015631098639259544	1.0117563728700899e-24	1.6053532585382524e8	4.0321444050239324e24	47.68943932527508	48.26599705297378	1.7611319653270132	0.9972159141608721
0.015693009041288758	1.0283790180594027e-24	1.6053532585382524e8	4.0321444050239324e24	47.68943932527508	48.26599705297378	1.7611319653270132	0.9972159141608721
0.01575516465307366	1.0452077448412179e-24	1.6053532585382524e8	4.0321444050239324e24	47.68943932527508	48.26599705297378	1.7611319653270132	0.9972159141608721
0.01581756644582151	1.062244482581066e-24	1.6053532585382524e8	4.0321444050239324e24	47.68943932527508	48.26599705297378	1.7611319653270132	0.9972159141608721
0.015880215394586	1.0794911771211704e-24	1.6053532585382524e8	4.0321444050239324e24	47.68943932527508	48.26599705297378	1.7611319653270132	0.9972159141608721
0.015943112478282985	1.0969497909159734e-24	1.6053532585382524e8	4.0321444050239324e24	47.68943932527508	48.26599705297378	1.7611319653270132	0.9972159141608721
0.01600625867970528	1.1146223031684692e-24	1.6053532585382524e8	4.0321444050239324e24	47.68943932527508	48.26599705297378	1.7611319653270132	0.9972159141608721
0.01606965498553853	1.132510709967931e-24	1.6053532585382524e8	4.0321444050239324e24	47.68943932527508	48.26599705297378	1.7611319653270132	0.9972159141608721
0.01613330238637609	1.1506170244284524e-24	1.6053532585382524e8	4.0321444050239324e24	47.68943932527508	48.26599705297378	1.7611319653270132	0.9972159141608721
0.01619720187673506	1.1689432768289055e-24	1.6053532585382524e8	4.0321444050239324e24	47.68943932527508	48.26599705297378	1.7611319653270132	0.9972159141608721
0.016261354455071264	1.1874915147537263e-24	1.6053532585382524e8	4.0321444050239324e24	47.68943932527508	48.26599705297378	1.7611319653270132	0.9972159141608721
