r[m]	M[Msun]	rho[g/cm^3]	P[N/m^2]	n_e[pm^-3]	n_p[pm^-3]	muF_e[MeV]	B
0.010000000000000005	8.471739890149026e-40	1.8442387850307065e8	4.913850431947374e24	55.14579120902717	166.35318965985596	1.8682920723553766	0.9970401283725879
0.010039556718153052	4.680651498526063e-27	1.8442387850307065e8	4.913850431947374e24	55.14579120902717	166.35318965985596	1.8682920723553766	0.9970401283725879
0.010079269909701203	9.511415852977994e-27	1.8442387850307065e8	4.913850431947374e24	55.14579120902717	166.35318965985596	1.8682920723553766	0.9970401283725879
0.010119140193601857	1.447509499972992e-26	1.8442387850307065e8	4.913850431947374e24	55.14579120902717	166.35318965985596	1.8682920723553766	0.9970401283725879
0.010159168191260805	1.955405740836924e-26	1.8442387850307065e8	4.913850431947374e24	55.14579120902717	166.35318965985596	1.8682920723553766	0.9970401283725879
0.010199354526541917	2.473023079671268e-26	1.8442387850307065e8	4.913850431947374e24	55.14579120902717	166.35318965985596	1.8682920723553766	0.9970401283725879
0.010239699825776858	2.998509474099584e-26	1.8442387850307065e8	4.913850431947374e24	55.14579120902717	166.35318965985596	1.8682920723553766	0.9970401283725879
0.010280204717774865	3.529967317984301e-26	1.8442387850307065e8	4.913850431947374e24	55.14579120902717	166.35318965985596	1.8682920723553766	0.9970401283725879
0.010320869833832529	4.0654526810595693e-26	1.8442387850307065e8	4.913850431947374e24	55.14579120902717	166.35318965985596	1.8682920723553766	0.9970401283725879
0.01036169580774365	4.602974537657744e-26	1.8442387850307065e8	4.913850431947374e24	55.14579120902717	166.35318965985596	1.8682920723553766	0.9970401283725879
0.0104026832758091	5.140493984383418e-26	1.8442387850307065e8	4.913850431947374e24	55.14579120902717	166.35318965985596	1.8682920723553766	0.9970401283725879
0.010443832876846762	5.675923446589135e-26	1.8442387850307065e8	4.913850431947374e24	55.14579120902717	166.35318965985596	1.8682920723553766	0.9970401283725879
0.010485145252201457	6.207411842928202e-26	1.8442387850307065e8	4.913850431947374e24	55.14579120902717	166.35318965985596	1.8682920723553766	0.9970401283725879
0.010526621045754966	6.748684517565124e-26	1.8442387850307065e8	4.913850431947374e24	55.14579120902717	166.35318965985596	1.8682920723553766	0.9970401283725879
0.010568260903936052	7.306801466937556e-26	1.8442387850307065e8	4.913850431947374e24	55.14579120902717	166.35318965985596	1.8682920723553766	0.9970401283725879
0.01061006547573054	7.879673174550747e-26	1.8442387850307065e8	4.913850431947374e24	55.14579120902717	166.35318965985596	1.8682920723553766	0.9970401283725879
0.010652035412691423	8.465157689732741e-26	1.8442387850307065e8	4.913850431947374e24	55.14579120902717	166.35318965985596	1.8682920723553766	0.9970401283725879
0.010694171368949035	9.06105974750154e-26	1.8442387850307065e8	4.913850431947374e24	55.14579120902717	166.35318965985596	1.8682920723553766	0.9970401283725879
0.010736474001221226	9.665129875774015e-26	1.8442387850307065e8	4.913850431947374e24	55.14579120902717	166.35318965985596	1.8682920723553766	0.9970401283725879
0.010778943968823609	1.0275063489748986e-25	1.8442387850307065e8	4.913850431947374e24	55.14579120902717	166.35318965985596	1.8682920723553766	0.9970401283725879
0.010821581933679833	1.0888499973293436e-25	1.8442387850307065e8	4.913850431947374e24	55.14579120902717	166.35318965985596	1.8682920723553766	0.9970401283725879
0.0108643885603319	1.1503021747158601e-25	1.8442387850307065e8	4.913850431947374e24	55.14579120902717	166.35318965985596	1.8682920723553766	0.9970401283725879
0.010907364515950525	1.2116153323851477e-25	1.8442387850307065e8	4.913850431947374e24	55.14579120902717	166.35318965985596	1.8682920723553766	0.9970401283725879
0.010950510470345525	1.272536034898334e-25	1.8442387850307065e8	4.913850431947374e24	55.14579120902717	166.35318965985596	1.8682920723553766	0.9970401283725879
0.01099382709597627	1.333829944449605e-25	1.8442387850307065e8	4.913850431947374e24	55.14579120902717	166.35318965985596	1.8682920723553766	0.9970401283725879
0.011037315067962112	1.3972227824504569e-25	1.8442387850307065e8	4.913850431947374e24	55.14579120902717	166.35318965985596	1.8682920723553766	0.9970401283725879
0.011080975064093087	1.462641913915713e-25	1.8442387850307065e8	4.913850431947374e24	55.14579120902717	166.35318965985596	1.8682920723553766	0.9970401283725879
0.011124807764840214	1.5299696603789125e-25	1.8442387850307065e8	4.913850431947374e24	55.14579120902717	166.35318965985596	1.8682920723553766	0.9970401283725879
0.011168813853366277	1.5990852162985247e-25	1.8442387850307065e8	4.913850431947374e24	55.14579120902717	166.35318965985596	1.8682920723553766	0.9970401283725879
0.011212994015536422	1.66986459575063e-25	1.8442387850307065e8	4.913850431947374e24	55.14579120902717	166.35318965985596	1.8682920723553766	0.9970401283725879
0.01125734893992886	1.7421805783499344e-25	1.8442387850307065e8	4.913850431947374e24	55.14579120902717	166.35318965985596	1.8682920723553766	0.9970401283725879
0.011301879317845586	1.815902654388675e-25	1.8442387850307065e8	4.913850431947374e24	55.14579120902717	166.35318965985596	1.8682920723553766	0.9970401283725879
0.011346585843323164	1.890896969183101e-25	1.8442387850307065e8	4.913850431947374e24	55.14579120902717	166.35318965985596	1.8682920723553766	0.9970401283725879
0.011391469213143532	1.9670262666167802e-25	1.8442387850307065e8	4.913850431947374e24	55.14579120902717	166.35318965985596	1.8682920723553766	0.9970401283725879
0.011436530126844875	2.044149831870181e-25	1.8442387850307065e8	4.913850431947374e24	55.14579120902717	166.35318965985596	1.8682920723553766	0.9970401283725879
0.011481769286732519	2.1221234333255575e-25	1.8442387850307065e8	4.913850431947374e24	55.14579120902717	166.35318965985596	1.8682920723553766	0.9970401283725879
0.011527187397889877	2.200799263636182e-25	1.8442387850307065e8	4.913850431947374e24	55.14579120902717	166.35318965985596	1.8682920723553766	0.9970401283725879
0.011572785168189447	2.280025879948857e-25	1.8442387850307065e8	4.913850431947374e24	55.14579120902717	166.35318965985596	1.8682920723553766	0.9970401283725879
0.01161856330830383	2.3596481432683037e-25	1.8442387850307065e8	4.913850431947374e24	55.14579120902717	166.35318965985596	1.8682920723553766	0.9970401283725879
0.011664522531716822	2.4395071569521476e-25	1.8442387850307065e8	4.913850431947374e24	55.14579120902717	166.35318965985596	1.8682920723553766	0.9970401283725879
0.01171066355473452	2.519440204324824e-25	1.8442387850307065e8	4.913850431947374e24	55.14579120902717	166.35318965985596	1.8682920723553766	0.9970401283725879
0.0117569870964965	2.5992806853987897e-25	1.8442387850307065e8	4.913850431947374e24	55.14579120902717	166.35318965985596	1.8682920723553766	0.9970401283725879
0.011803493878987012	2.678858052691087e-25	1.8442387850307065e8	4.913850431947374e24	55.14579120902717	166.35318965985596	1.8682920723553766	0.9970401283725879
0.011850184627046243	2.757997746123339e-25	1.8442387850307065e8	4.913850431947374e24	55.14579120902717	166.35318965985596	1.8682920723553766	0.9970401283725879
0.011897060068381607	2.836521126992922e-25	1.8442387850307065e8	4.913850431947374e24	55.14579120902717	166.35318965985596	1.8682920723553766	0.9970401283725879
0.011944120933579092	2.9149276433584184e-25	1.8442387850307065e8	4.913850431947374e24	55.14579120902717	166.35318965985596	1.8682920723553766	0.9970401283725879
0.011991367956114642	2.9958093658223366e-25	1.8442387850307065e8	4.913850431947374e24	55.14579120902717	166.35318965985596	1.8682920723553766	0.9970401283725879
0.012038801872365591	3.0792976695462515e-25	1.8442387850307065e8	4.913850431947374e24	55.14579120902717	166.35318965985596	1.8682920723553766	0.9970401283725879
0.012086423421622146	3.1652267443832928e-25	1.8442387850307065e8	4.913850431947374e24	55.14579120902717	166.35318965985596	1.8682920723553766	0.9970401283725879
0.012134233346098896	3.253426413923359e-25	1.8442387850307065e8	4.913850431947374e24	55.14579120902717	166.35318965985596	1.8682920723553766	0.9970401283725879
0.01218223239094639	3.343722061237357e-25	1.8442387850307065e8	4.913850431947374e24	55.14579120902717	166.35318965985596	1.8682920723553766	0.9970401283725879
0.012230421304262747	3.4359345535474678e-25	1.8442387850307065e8	4.913850431947374e24	55.14579120902717	166.35318965985596	1.8682920723553766	0.9970401283725879
0.012278800837105322	3.529880165809157e-25	1.8442387850307065e8	4.913850431947374e24	55.14579120902717	166.35318965985596	1.8682920723553766	0.9970401283725879
0.0123273717435024	3.6253705031903365e-25	1.8442387850307065e8	4.913850431947374e24	55.14579120902717	166.35318965985596	1.8682920723553766	0.9970401283725879
0.012376134780464955	3.722212422433e-25	1.8442387850307065e8	4.913850431947374e24	55.14579120902717	166.35318965985596	1.8682920723553766	0.9970401283725879
0.012425090707998455	3.8202079520824717e-25	1.8442387850307065e8	4.913850431947374e24	55.14579120902717	166.35318965985596	1.8682920723553766	0.9970401283725879
0.012474240289114688	3.919154211569021e-25	1.8442387850307065e8	4.913850431947374e24	55.14579120902717	166.35318965985596	1.8682920723553766	0.9970401283725879
0.012523584289843678	4.0188433291267755e-25	1.8442387850307065e8	4.913850431947374e24	55.14579120902717	166.35318965985596	1.8682920723553766	0.9970401283725879
0.012573123479245605	4.119062358534247e-25	1.8442387850307065e8	4.913850431947374e24	55.14579120902717	166.35318965985596	1.8682920723553766	0.9970401283725879
0.012622858629422803	4.219593194660922e-25	1.8442387850307065e8	4.913850431947374e24	55.14579120902717	166.35318965985596	1.8682920723553766	0.9970401283725879
0.012672790515531787	4.3202124878039765e-25	1.8442387850307065e8	4.913850431947374e24	55.14579120902717	166.35318965985596	1.8682920723553766	0.9970401283725879
0.012722919915795336	4.420691556799056e-25	1.8442387850307065e8	4.913850431947374e24	55.14579120902717	166.35318965985596	1.8682920723553766	0.9970401283725879
0.012773247611514629	4.520796300888837e-25	1.8442387850307065e8	4.913850431947374e24	55.14579120902717	166.35318965985596	1.8682920723553766	0.9970401283725879
0.012823774387081403	4.620287110332824e-25	1.8442387850307065e8	4.913850431947374e24	55.14579120902717	166.35318965985596	1.8682920723553766	0.9970401283725879
0.012874501029990208	4.718919249386088e-25	1.8442387850307065e8	4.913850431947374e24	55.14579120902717	166.35318965985596	1.8682920723553766	0.9970401283725879
0.012925428330850652	4.817815219962069e-25	1.8442387850307065e8	4.913850431947374e24	55.14579120902717	166.35318965985596	1.8682920723553766	0.9970401283725879
0.012976557083399738	4.918176266117477e-25	1.8442387850307065e8	4.913850431947374e24	55.14579120902717	166.35318965985596	1.8682920723553766	0.9970401283725879
0.013027888084514237	5.02001669581249e-25	1.8442387850307065e8	4.913850431947374e24	55.14579120902717	166.35318965985596	1.8682920723553766	0.9970401283725879
0.013079422134223093	5.12335094108418e-25	1.8442387850307065e8	4.913850431947374e24	55.14579120902717	166.35318965985596	1.8682920723553766	0.9970401283725879
0.013131160035719912	5.228193559072261e-25	1.8442387850307065e8	4.913850431947374e24	55.14579120902717	166.35318965985596	1.8682920723553766	0.9970401283725879
0.013183102595375465	5.334559233053101e-25	1.8442387850307065e8	4.913850431947374e24	55.14579120902717	166.35318965985596	1.8682920723553766	0.9970401283725879
0.013235250622750262	5.442462773482064e-25	1.8442387850307065e8	4.913850431947374e24	55.14579120902717	166.35318965985596	1.8682920723553766	0.9970401283725879
0.01328760493060717	5.551919119044362e-25	1.8442387850307065e8	4.913850431947374e24	55.14579120902717	166.35318965985596	1.8682920723553766	0.9970401283725879
0.013340166334924077	5.662943337714333e-25	1.8442387850307065e8	4.913850431947374e24	55.14579120902717	166.35318965985596	1.8682920723553766	0.9970401283725879
0.013392935654906613	5.775550627823324e-25	1.8442387850307065e8	4.913850431947374e24	55.14579120902717	166.35318965985596	1.8682920723553766	0.9970401283725879
0.01344591371300086	5.889756319136062e-25	1.8442387850307065e8	4.913850431947374e24	55.14579120902717	166.35318965985596	1.8682920723553766	0.9970401283725879
0.013499101334906397	6.005575873936392e-25	1.8442387850307065e8	4.913850431947374e24	55.14579120902717	166.35318965985596	1.8682920723553766	0.9970401283725879
0.01355249934958883	6.1230248881205e-25	1.8442387850307065e8	4.913850431947374e24	55.14579120902717	166.35318965985596	1.8682920723553766	0.9970401283725879
0.013606108589292933	6.242119092300232e-25	1.8442387850307065e8	4.913850431947374e24	55.14579120902717	166.35318965985596	1.8682920723553766	0.9970401283725879
0.013659929889555575	6.362874352914736e-25	1.8442387850307065e8	4.913850431947374e24	55.14579120902717	166.35318965985596	1.8682920723553766	0.9970401283725879
0.013713964089218728	6.485306673351173e-25	1.8442387850307065e8	4.913850431947374e24	55.14579120902717	166.35318965985596	1.8682920723553766	0.9970401283725879
0.013768212030442551	6.609432195074513e-25	1.8442387850307065e8	4.913850431947374e24	55.14579120902717	166.35318965985596	1.8682920723553766	0.9970401283725879
0.013822674558718512	6.735267198766481e-25	1.8442387850307065e8	4.913850431947374e24	55.14579120902717	166.35318965985596	1.8682920723553766	0.9970401283725879
0.013877352522882564	6.862828105473641e-25	1.8442387850307065e8	4.913850431947374e24	55.14579120902717	166.35318965985596	1.8682920723553766	0.9970401283725879
0.013932246775128379	6.992131477764823e-25	1.8442387850307065e8	4.913850431947374e24	55.14579120902717	166.35318965985596	1.8682920723553766	0.9970401283725879
0.013987358171020627	7.12319402089787e-25	1.8442387850307065e8	4.913850431947374e24	55.14579120902717	166.35318965985596	1.8682920723553766	0.9970401283725879
0.014042687569508303	7.256032583995809e-25	1.8442387850307065e8	4.913850431947374e24	55.14579120902717	166.35318965985596	1.8682920723553766	0.9970401283725879
0.014098235832938136	7.390664161232556e-25	1.8442387850307065e8	4.913850431947374e24	55.14579120902717	166.35318965985596	1.8682920723553766	0.9970401283725879
0.014154003827068008	7.527105893028163e-25	1.8442387850307065e8	4.913850431947374e24	55.14579120902717	166.35318965985596	1.8682920723553766	0.9970401283725879
0.014209992421080456	7.665375067253727e-25	1.8442387850307065e8	4.913850431947374e24	55.14579120902717	166.35318965985596	1.8682920723553766	0.9970401283725879
0.014266202487596219	7.805489120446034e-25	1.8442387850307065e8	4.913850431947374e24	55.14579120902717	166.35318965985596	1.8682920723553766	0.9970401283725879
0.014322634902687833	7.947465639032022e-25	1.8442387850307065e8	4.913850431947374e24	55.14579120902717	166.35318965985596	1.8682920723553766	0.9970401283725879
0.014379290545893295	8.091322360563139e-25	1.8442387850307065e8	4.913850431947374e24	55.14579120902717	166.35318965985596	1.8682920723553766	0.9970401283725879
0.014436170300229763	8.237077174959615e-25	1.8442387850307065e8	4.913850431947374e24	55.14579120902717	166.35318965985596	1.8682920723553766	0.9970401283725879
0.014493275052207322	8.384748125764894e-25	1.8442387850307065e8	4.913850431947374e24	55.14579120902717	166.35318965985596	1.8682920723553766	0.9970401283725879
0.014550605691842796	8.534353411409997e-25	1.8442387850307065e8	4.913850431947374e24	55.14579120902717	166.35318965985596	1.8682920723553766	0.9970401283725879
0.014608163112673631	8.685911386488356e-25	1.8442387850307065e8	4.913850431947374e24	55.14579120902717	166.35318965985596	1.8682920723553766	0.9970401283725879
0.014665948211771807	8.839440563040699e-25	1.8442387850307065e8	4.913850431947374e24	55.14579120902717	166.35318965985596	1.8682920723553766	0.9970401283725879
0.01472396188975783	8.994959611850455e-25	1.8442387850307065e8	4.913850431947374e24	55.14579120902717	166.35318965985596	1.8682920723553766	0.9970401283725879
0.014782205050814769	9.152487363749542e-25	1.8442387850307065e8	4.913850431947374e24	55.14579120902717	166.35318965985596	1.8682920723553766	0.9970401283725879
0.01484067860270233	9.31204281093471e-25	1.8442387850307065e8	4.913850431947374e24	55.14579120902717	166.35318965985596	1.8682920723553766	0.9970401283725879
0.014899383456771035	9.473645108294563e-25	1.8442387850307065e8	4.913850431947374e24	55.14579120902717	166.35318965985596	1.8682920723553766	0.9970401283725879
0.014958320527976403	9.637313574747195e-25	1.8442387850307065e8	4.913850431947374e24	55.14579120902717	166.35318965985596	1.8682920723553766	0.9970401283725879
0.015017490734893212	9.803067694588653e-25	1.8442387850307065e8	4.913850431947374e24	55.14579120902717	166.35318965985596	1.8682920723553766	0.9970401283725879
0.015076894999729829	9.97092711885235e-25	1.8442387850307065e8	4.913850431947374e24	55.14579120902717	166.35318965985596	1.8682920723553766	0.9970401283725879
0.015136534248342569	1.0140911666679355e-24	1.8442387850307065e8	4.913850431947374e24	55.14579120902717	166.35318965985596	1.8682920723553766	0.9970401283725879
0.015196409410250133	1.0313041326699753e-24	1.8442387850307065e8	4.913850431947374e24	55.14579120902717	166.35318965985596	1.8682920723553766	0.9970401283725879
0.01525652141864809	1.0487336258425183e-24	1.8442387850307065e8	4.913850431947374e24	55.14579120902717	166.35318965985596	1.8682920723553766	0.9970401283725879
0.015316871210423431	1.0663816793652621e-24	1.8442387850307065e8	4.913850431947374e24	55.14579120902717	166.35318965985596	1.8682920723553766	0.9970401283725879
0.015377459726169154	1.0842503437879392e-24	1.8442387850307065e8	4.913850431947374e24	55.14579120902717	166.35318965985596	1.8682920723553766	0.9970401283725879
0.015438287910198946	1.1023416871729716e-24	1.8442387850307065e8	4.913850431947374e24	55.14579120902717	166.35318965985596	1.8682920723553766	0.9970401283725879
0.015499356710561877	1.1206577952392661e-24	1.8442387850307065e8	4.913850431947374e24	55.14579120902717	166.35318965985596	1.8682920723553766	0.9970401283725879
0.0155606670790572	1.1392007715071746e-24	1.8442387850307065e8	4.913850431947374e24	55.14579120902717	166.35318965985596	1.8682920723553766	0.9970401283725879
0.01562221997124917	1.1579727374446232e-24	1.8442387850307065e8	4.913850431947374e24	55.14579120902717	166.35318965985596	1.8682920723553766	0.9970401283725879
0.01568401634648193	1.1769758326144121e-24	1.8442387850307065e8	4.913850431947374e24	55.14579120902717	166.35318965985596	1.8682920723553766	0.9970401283725879
0.015746057167894487	1.1962122148227183e-24	1.8442387850307065e8	4.913850431947374e24	55.14579120902717	166.35318965985596	1.8682920723553766	0.9970401283725879
0.015808343402435705	1.2156840602687774e-24	1.8442387850307065e8	4.913850431947374e24	55.14579120902717	166.35318965985596	1.8682920723553766	0.9970401283725879
0.015870876020879377	1.2353935636957843e-24	1.8442387850307065e8	4.913850431947374e24	55.14579120902717	166.35318965985596	1.8682920723553766	0.9970401283725879
0.015933655997839365	1.2553429385430074e-24	1.8442387850307065e8	4.913850431947374e24	55.14579120902717	166.35318965985596	1.8682920723553766	0.9970401283725879
0.015996684311784776	1.2755344170991281e-24	1.8442387850307065e8	4.913850431947374e24	55.14579120902717	166.35318965985596	1.8682920723553766	0.9970401283725879
0.016059961945055233	1.295970250656816e-24	1.8442387850307065e8	4.913850431947374e24	55.14579120902717	166.35318965985596	1.8682920723553766	0.9970401283725879
0.016123489883876154	1.3166527096685452e-24	1.8442387850307065e8	4.913850431947374e24	55.14579120902717	166.35318965985596	1.8682920723553766	0.9970401283725879
0.01618726911837415	1.3375840839036778e-24	1.8442387850307065e8	4.913850431947374e24	55.14579120902717	166.35318965985596	1.8682920723553766	0.9970401283725879
0.016251300642592458	1.3587666826068051e-24	1.8442387850307065e8	4.913850431947374e24	55.14579120902717	166.35318965985596	1.8682920723553766	0.9970401283725879
