r[m]	M[Msun]	rho[g/cm^3]	P[N/m^2]	n_e[pm^-3]	n_p[pm^-3]	muF_e[MeV]	B
0.009999999999999986	-8.041429292554156e-39	9.968808028293959e8	4.752077127835743e25	296.03204461666246	299.5046328929661	3.5897947802659043	0.9946063661164143
0.010038705917724907	2.4728827503647253e-26	9.968808028293959e8	4.752077127835743e25	296.03204461666246	299.5046328929661	3.5897947802659043	0.9946063661164143
0.010077561650256561	5.0134534979470913e-26	9.968808028293959e8	4.752077127835743e25	296.03204461666246	299.5046328929661	3.5897947802659043	0.9946063661164143
0.010116567777466825	7.603517348647078e-26	9.968808028293959e8	4.752077127835743e25	296.03204461666246	299.5046328929661	3.5897947802659043	0.9946063661164143
0.010155724881472187	1.0224445426462928e-25	9.968808028293959e8	4.752077127835743e25	296.03204461666246	299.5046328929661	3.5897947802659043	0.9946063661164143
0.010195033546642106	1.2857167804714473e-25	9.968808028293959e8	4.752077127835743e25	296.03204461666246	299.5046328929661	3.5897947802659043	0.9946063661164143
0.010234494359608062	1.5482166338204535e-25	9.968808028293959e8	4.752077127835743e25	296.03204461666246	299.5046328929661	3.5897947802659043	0.9946063661164143
0.010274107909271978	1.8128188749591114e-25	9.968808028293959e8	4.752077127835743e25	296.03204461666246	299.5046328929661	3.5897947802659043	0.9946063661164143
0.010313874786815301	2.0847774031097898e-25	9.968808028293959e8	4.752077127835743e25	296.03204461666246	299.5046328929661	3.5897947802659043	0.9946063661164143
0.010353795585707704	2.362163620346613e-25	9.968808028293959e8	4.752077127835743e25	296.03204461666246	299.5046328929661	3.5897947802659043	0.9946063661164143
0.01039387090171581	2.6429335575703594e-25	9.968808028293959e8	4.752077127835743e25	296.03204461666246	299.5046328929661	3.5897947802659043	0.9946063661164143
0.010434101332912378	2.9249948514671366e-25	9.968808028293959e8	4.752077127835743e25	296.03204461666246	299.5046328929661	3.5897947802659043	0.9946063661164143
0.010474487479684895	3.206205957999185e-25	9.968808028293959e8	4.752077127835743e25	296.03204461666246	299.5046328929661	3.5897947802659043	0.9946063661164143
0.010515029944744878	3.490204668770846e-25	9.968808028293959e8	4.752077127835743e25	296.03204461666246	299.5046328929661	3.5897947802659043	0.9946063661164143
0.010555729333136516	3.7831377479519386e-25	9.968808028293959e8	4.752077127835743e25	296.03204461666246	299.5046328929661	3.5897947802659043	0.9946063661164143
0.010596586252246007	4.083982974942228e-25	9.968808028293959e8	4.752077127835743e25	296.03204461666246	299.5046328929661	3.5897947802659043	0.9946063661164143
0.010637601311810496	4.391659635969648e-25	9.968808028293959e8	4.752077127835743e25	296.03204461666246	299.5046328929661	3.5897947802659043	0.9946063661164143
0.01067877512392704	4.705060647068233e-25	9.968808028293959e8	4.752077127835743e25	296.03204461666246	299.5046328929661	3.5897947802659043	0.9946063661164143
0.010720108303062048	5.023052121771654e-25	9.968808028293959e8	4.752077127835743e25	296.03204461666246	299.5046328929661	3.5897947802659043	0.9946063661164143
0.010761601466060105	5.344472932723656e-25	9.968808028293959e8	4.752077127835743e25	296.03204461666246	299.5046328929661	3.5897947802659043	0.9946063661164143
0.010803255232153518	5.668134267136352e-25	9.968808028293959e8	4.752077127835743e25	296.03204461666246	299.5046328929661	3.5897947802659043	0.9946063661164143
0.010845070222971223	5.992819176005571e-25	9.968808028293959e8	4.752077127835743e25	296.03204461666246	299.5046328929661	3.5897947802659043	0.9946063661164143
0.010887047062548354	6.317282117012438e-25	9.968808028293959e8	4.752077127835743e25	296.03204461666246	299.5046328929661	3.5897947802659043	0.9946063661164143
0.010929186377335432	6.640248491020731e-25	9.968808028293959e8	4.752077127835743e25	296.03204461666246	299.5046328929661	3.5897947802659043	0.9946063661164143
0.010971488796207579	6.961591348770356e-25	9.968808028293959e8	4.752077127835743e25	296.03204461666246	299.5046328929661	3.5897947802659043	0.9946063661164143
0.011013954950474214	7.2910681884009185e-25	9.968808028293959e8	4.752077127835743e25	296.03204461666246	299.5046328929661	3.5897947802659043	0.9946063661164143
0.011056585473888119	7.630143038593573e-25	9.968808028293959e8	4.752077127835743e25	296.03204461666246	299.5046328929661	3.5897947802659043	0.9946063661164143
0.01109938100265525	7.977536542309761e-25	9.968808028293959e8	4.752077127835743e25	296.03204461666246	299.5046328929661	3.5897947802659043	0.9946063661164143
0.011142342175443881	8.331938080890583e-25	9.968808028293959e8	4.752077127835743e25	296.03204461666246	299.5046328929661	3.5897947802659043	0.9946063661164143
0.011185469633394446	8.692005261336512e-25	9.968808028293959e8	4.752077127835743e25	296.03204461666246	299.5046328929661	3.5897947802659043	0.9946063661164143
0.011228764020128968	9.056363396373245e-25	9.968808028293959e8	4.752077127835743e25	296.03204461666246	299.5046328929661	3.5897947802659043	0.9946063661164143
0.011272225981760534	9.42360497721334e-25	9.968808028293959e8	4.752077127835743e25	296.03204461666246	299.5046328929661	3.5897947802659043	0.9946063661164143
0.011315856166903254	9.792289138922212e-25	9.968808028293959e8	4.752077127835743e25	296.03204461666246	299.5046328929661	3.5897947802659043	0.9946063661164143
0.011359655226681573	1.0160941118282733e-24	9.968808028293959e8	4.752077127835743e25	296.03204461666246	299.5046328929661	3.5897947802659043	0.9946063661164143
0.01140362381474036	1.0528051704073013e-24	9.968808028293959e8	4.752077127835743e25	296.03204461666246	299.5046328929661	3.5897947802659043	0.9946063661164143
0.011447762587254287	1.0892653064395677e-24	9.968808028293959e8	4.752077127835743e25	296.03204461666246	299.5046328929661	3.5897947802659043	0.9946063661164143
0.011492072202938004	1.126029822416577e-24	9.968808028293959e8	4.752077127835743e25	296.03204461666246	299.5046328929661	3.5897947802659043	0.9946063661164143
0.011536553323055582	1.1632803786107751e-24	9.968808028293959e8	4.752077127835743e25	296.03204461666246	299.5046328929661	3.5897947802659043	0.9946063661164143
0.011581206611430715	1.2010215223879533e-24	9.968808028293959e8	4.752077127835743e25	296.03204461666246	299.5046328929661	3.5897947802659043	0.9946063661164143
0.011626032734456495	1.23925783939364e-24	9.968808028293959e8	4.752077127835743e25	296.03204461666246	299.5046328929661	3.5897947802659043	0.9946063661164143
0.011671032361105208	1.277993953861524e-24	9.968808028293959e8	4.752077127835743e25	296.03204461666246	299.5046328929661	3.5897947802659043	0.9946063661164143
0.011716206162938638	1.3172345289247173e-24	9.968808028293959e8	4.752077127835743e25	296.03204461666246	299.5046328929661	3.5897947802659043	0.9946063661164143
0.011761554814117729	1.3569842669288959e-24	9.968808028293959e8	4.752077127835743e25	296.03204461666246	299.5046328929661	3.5897947802659043	0.9946063661164143
0.011807078991413016	1.3972479097485472e-24	9.968808028293959e8	4.752077127835743e25	296.03204461666246	299.5046328929661	3.5897947802659043	0.9946063661164143
0.011852779374214343	1.4380302391050511e-24	9.968808028293959e8	4.752077127835743e25	296.03204461666246	299.5046328929661	3.5897947802659043	0.9946063661164143
0.011898656644541341	1.4793360768879212e-24	9.968808028293959e8	4.752077127835743e25	296.03204461666246	299.5046328929661	3.5897947802659043	0.9946063661164143
0.011944711487053457	1.521170285478146e-24	9.968808028293959e8	4.752077127835743e25	296.03204461666246	299.5046328929661	3.5897947802659043	0.9946063661164143
0.011990944589060037	1.5635377680740834e-24	9.968808028293959e8	4.752077127835743e25	296.03204461666246	299.5046328929661	3.5897947802659043	0.9946063661164143
0.012037356640530912	1.6064434690203734e-24	9.968808028293959e8	4.752077127835743e25	296.03204461666246	299.5046328929661	3.5897947802659043	0.9946063661164143
0.012083948334106302	1.6498923741387683e-24	9.968808028293959e8	4.752077127835743e25	296.03204461666246	299.5046328929661	3.5897947802659043	0.9946063661164143
0.012130720365107563	1.6938895110623257e-24	9.968808028293959e8	4.752077127835743e25	296.03204461666246	299.5046328929661	3.5897947802659043	0.9946063661164143
0.012177673431547149	1.738439949571474e-24	9.968808028293959e8	4.752077127835743e25	296.03204461666246	299.5046328929661	3.5897947802659043	0.9946063661164143
0.012224808234139392	1.7835488019334517e-24	9.968808028293959e8	4.752077127835743e25	296.03204461666246	299.5046328929661	3.5897947802659043	0.9946063661164143
0.012272125476310793	1.8292212232439384e-24	9.968808028293959e8	4.752077127835743e25	296.03204461666246	299.5046328929661	3.5897947802659043	0.9946063661164143
0.012319625864210393	1.8754624117714126e-24	9.968808028293959e8	4.752077127835743e25	296.03204461666246	299.5046328929661	3.5897947802659043	0.9946063661164143
0.012367310106720637	1.9222776093046656e-24	9.968808028293959e8	4.752077127835743e25	296.03204461666246	299.5046328929661	3.5897947802659043	0.9946063661164143
0.012415178915467567	1.9696721015023662e-24	9.968808028293959e8	4.752077127835743e25	296.03204461666246	299.5046328929661	3.5897947802659043	0.9946063661164143
0.012463233004831844	2.01765121824616e-24	9.968808028293959e8	4.752077127835743e25	296.03204461666246	299.5046328929661	3.5897947802659043	0.9946063661164143
0.012511473091958996	2.0662203339957454e-24	9.968808028293959e8	4.752077127835743e25	296.03204461666246	299.5046328929661	3.5897947802659043	0.9946063661164143
0.01255989989677049	2.1153848681475382e-24	9.968808028293959e8	4.752077127835743e25	296.03204461666246	299.5046328929661	3.5897947802659043	0.9946063661164143
0.012608514141974305	2.1651502853956138e-24	9.968808028293959e8	4.752077127835743e25	296.03204461666246	299.5046328929661	3.5897947802659043	0.9946063661164143
0.01265731655307558	2.215522096095547e-24	9.968808028293959e8	4.752077127835743e25	296.03204461666246	299.5046328929661	3.5897947802659043	0.9946063661164143
0.012706307858387793	2.2665058566316013e-24	9.968808028293959e8	4.752077127835743e25	296.03204461666246	299.5046328929661	3.5897947802659043	0.9946063661164143
0.01275548878904322	2.3181071697860508e-24	9.968808028293959e8	4.752077127835743e25	296.03204461666246	299.5046328929661	3.5897947802659043	0.9946063661164143
0.01280486007900426	2.370331685112259e-24	9.968808028293959e8	4.752077127835743e25	296.03204461666246	299.5046328929661	3.5897947802659043	0.9946063661164143
0.012854422465073963	2.423185099309828e-24	9.968808028293959e8	4.752077127835743e25	296.03204461666246	299.5046328929661	3.5897947802659043	0.9946063661164143
0.012904176686907416	2.4766731566035663e-24	9.968808028293959e8	4.752077127835743e25	296.03204461666246	299.5046328929661	3.5897947802659043	0.9946063661164143
0.012954123487022597	2.5308016491248272e-24	9.968808028293959e8	4.752077127835743e25	296.03204461666246	299.5046328929661	3.5897947802659043	0.9946063661164143
0.013004263610811313	2.585576417295919e-24	9.968808028293959e8	4.752077127835743e25	296.03204461666246	299.5046328929661	3.5897947802659043	0.9946063661164143
0.013054597806550688	2.6410033502180743e-24	9.968808028293959e8	4.752077127835743e25	296.03204461666246	299.5046328929661	3.5897947802659043	0.9946063661164143
0.013105126825413918	2.6970883860616353e-24	9.968808028293959e8	4.752077127835743e25	296.03204461666246	299.5046328929661	3.5897947802659043	0.9946063661164143
0.013155851421481884	2.753837512460234e-24	9.968808028293959e8	4.752077127835743e25	296.03204461666246	299.5046328929661	3.5897947802659043	0.9946063661164143
0.013206772351753998	2.8112567669071464e-24	9.968808028293959e8	4.752077127835743e25	296.03204461666246	299.5046328929661	3.5897947802659043	0.9946063661164143
0.013257890376159874	2.8693522371556767e-24	9.968808028293959e8	4.752077127835743e25	296.03204461666246	299.5046328929661	3.5897947802659043	0.9946063661164143
0.013309206257570493	2.928130061622072e-24	9.968808028293959e8	4.752077127835743e25	296.03204461666246	299.5046328929661	3.5897947802659043	0.9946063661164143
0.013360720761809447	2.9875964297916257e-24	9.968808028293959e8	4.752077127835743e25	296.03204461666246	299.5046328929661	3.5897947802659043	0.9946063661164143
0.013412434657664724	3.047757582628601e-24	9.968808028293959e8	4.752077127835743e25	296.03204461666246	299.5046328929661	3.5897947802659043	0.9946063661164143
0.013464348716899768	3.1086198129884475e-24	9.968808028293959e8	4.752077127835743e25	296.03204461666246	299.5046328929661	3.5897947802659043	0.9946063661164143
0.013516463714265419	3.1701894660342775e-24	9.968808028293959e8	4.752077127835743e25	296.03204461666246	299.5046328929661	3.5897947802659043	0.9946063661164143
0.013568780427511043	3.2324729396555983e-24	9.968808028293959e8	4.752077127835743e25	296.03204461666246	299.5046328929661	3.5897947802659043	0.9946063661164143
0.01362129963739652	3.295476684891319e-24	9.968808028293959e8	4.752077127835743e25	296.03204461666246	299.5046328929661	3.5897947802659043	0.9946063661164143
0.013674022127703729	3.359207206355436e-24	9.968808028293959e8	4.752077127835743e25	296.03204461666246	299.5046328929661	3.5897947802659043	0.9946063661164143
0.013726948685248094	3.4236710626660834e-24	9.968808028293959e8	4.752077127835743e25	296.03204461666246	299.5046328929661	3.5897947802659043	0.9946063661164143
0.013780080099890691	3.488874866878599e-24	9.968808028293959e8	4.752077127835743e25	296.03204461666246	299.5046328929661	3.5897947802659043	0.9946063661164143
0.01383341716454961	3.554825286921031e-24	9.968808028293959e8	4.752077127835743e25	296.03204461666246	299.5046328929661	3.5897947802659043	0.9946063661164143
0.013886960675212223	3.621529046034146e-24	9.968808028293959e8	4.752077127835743e25	296.03204461666246	299.5046328929661	3.5897947802659043	0.9946063661164143
0.01394071143094662	3.688992923213798e-24	9.968808028293959e8	4.752077127835743e25	296.03204461666246	299.5046328929661	3.5897947802659043	0.9946063661164143
0.013994670233913929	3.757223753657836e-24	9.968808028293959e8	4.752077127835743e25	296.03204461666246	299.5046328929661	3.5897947802659043	0.9946063661164143
0.014048837889380113	3.8262284292158275e-24	9.968808028293959e8	4.752077127835743e25	296.03204461666246	299.5046328929661	3.5897947802659043	0.9946063661164143
0.01410321520572782	3.896013898842316e-24	9.968808028293955e8	4.752077127835741e25	296.03204461666235	299.504632892966	3.589794780265904	0.9946063661164143
0.014157802994468855	3.966587169054384e-24	9.968808028293955e8	4.752077127835741e25	296.03204461666235	299.504632892966	3.589794780265904	0.9946063661164143
0.01421260207025581	4.0379553043916986e-24	9.968808028293955e8	4.752077127835741e25	296.03204461666235	299.504632892966	3.589794780265904	0.9946063661164143
0.014267613250894701	4.1101254278813985e-24	9.968808028293955e8	4.752077127835741e25	296.03204461666235	299.504632892966	3.589794780265904	0.9946063661164143
0.014322837357356713	4.183104721505417e-24	9.968808028293955e8	4.752077127835741e25	296.03204461666235	299.504632892966	3.589794780265904	0.9946063661164143
0.01437827521379084	4.256900426672626e-24	9.968808028293955e8	4.752077127835741e25	296.03204461666235	299.504632892966	3.589794780265904	0.9946063661164143
0.014433927647536026	4.3315198446939505e-24	9.968808028293955e8	4.752077127835741e25	296.03204461666235	299.504632892966	3.589794780265904	0.9946063661164143
0.014489795489133324	4.406970337261183e-24	9.968808028293955e8	4.752077127835741e25	296.03204461666235	299.504632892966	3.589794780265904	0.9946063661164143
0.014545879572338714	4.4832593269304074e-24	9.968808028293955e8	4.752077127835741e25	296.03204461666235	299.504632892966	3.589794780265904	0.9946063661164143
0.01460218073413507	4.560394297607993e-24	9.968808028293955e8	4.752077127835741e25	296.03204461666235	299.504632892966	3.589794780265904	0.9946063661164143
0.014658699814745114	4.6383827950417026e-24	9.968808028293955e8	4.752077127835741e25	296.03204461666235	299.504632892966	3.589794780265904	0.9946063661164143
0.014715437657643498	4.717232427314406e-24	9.968808028293955e8	4.752077127835741e25	296.03204461666235	299.504632892966	3.589794780265904	0.9946063661164143
0.014772395109569791	4.796950865342854e-24	9.968808028293955e8	4.752077127835741e25	296.03204461666235	299.504632892966	3.589794780265904	0.9946063661164143
0.014829573020540955	4.877545843379614e-24	9.968808028293955e8	4.752077127835741e25	296.03204461666235	299.504632892966	3.589794780265904	0.9946063661164143
0.01488697224386383	4.9590251595188876e-24	9.968808028293955e8	4.752077127835741e25	296.03204461666235	299.504632892966	3.589794780265904	0.9946063661164143
0.014944593636148308	5.041396676207207e-24	9.968808028293955e8	4.752077127835741e25	296.03204461666235	299.504632892966	3.589794780265904	0.9946063661164143
0.015002438057319623	5.124668320756839e-24	9.968808028293955e8	4.752077127835741e25	296.03204461666235	299.504632892966	3.589794780265904	0.9946063661164143
0.015060506370631666	5.208848085864624e-24	9.968808028293955e8	4.752077127835741e25	296.03204461666235	299.504632892966	3.589794780265904	0.9946063661164143
0.015118799442679395	5.2939440301335026e-24	9.968808028293955e8	4.752077127835741e25	296.03204461666235	299.504632892966	3.589794780265904	0.9946063661164143
0.015177318143412251	5.379964278599557e-24	9.968808028293955e8	4.752077127835741e25	296.03204461666235	299.504632892966	3.589794780265904	0.9946063661164143
0.015236063346146637	5.466917023261738e-24	9.968808028293955e8	4.752077127835741e25	296.03204461666235	299.504632892966	3.589794780265904	0.9946063661164143
0.0152950359275794	5.55481052361718e-24	9.968808028293955e8	4.752077127835741e25	296.03204461666235	299.504632892966	3.589794780265904	0.9946063661164143
0.015354236767800723	5.643653107199752e-24	9.968808028293955e8	4.752077127835741e25	296.03204461666235	299.504632892966	3.589794780265904	0.9946063661164143
0.015413666750307066	5.733453170122878e-24	9.968808028293955e8	4.752077127835741e25	296.03204461666235	299.504632892966	3.589794780265904	0.9946063661164143
0.015473326762014803	5.824219177627559e-24	9.968808028293955e8	4.752077127835741e25	296.03204461666235	299.504632892966	3.589794780265904	0.9946063661164143
0.015533217693272938	5.915959664633254e-24	9.968808028293955e8	4.752077127835741e25	296.03204461666235	299.504632892966	3.589794780265904	0.9946063661164143
0.015593340437876912	6.008683236294687e-24	9.968808028293955e8	4.752077127835741e25	296.03204461666235	299.504632892966	3.589794780265904	0.9946063661164143
0.015653695893081424	6.1023985685614214e-24	9.968808028293955e8	4.752077127835741e25	296.03204461666235	299.504632892966	3.589794780265904	0.9946063661164143
0.01571428495961428	6.197114408743355e-24	9.968808028293955e8	4.752077127835741e25	296.03204461666235	299.504632892966	3.589794780265904	0.9946063661164143
0.015775108541689623	6.292839576079616e-24	9.968808028293955e8	4.752077127835741e25	296.03204461666235	299.504632892966	3.589794780265904	0.9946063661164143
0.015836167547021256	6.389582962311992e-24	9.968808028293955e8	4.752077127835741e25	296.03204461666235	299.504632892966	3.589794780265904	0.9946063661164143
0.015897462886836626	6.48735353226384e-24	9.968808028293955e8	4.752077127835741e25	296.03204461666235	299.504632892966	3.589794780265904	0.9946063661164143
0.015958995475889914	6.58616032442203e-24	9.968808028293955e8	4.752077127835741e25	296.03204461666235	299.504632892966	3.589794780265904	0.9946063661164143
0.016020766232476197	6.6860124515251e-24	9.968808028293955e8	4.752077127835741e25	296.03204461666235	299.504632892966	3.589794780265904	0.9946063661164143
0.016082776078444636	6.786919101154393e-24	9.968808028293955e8	4.752077127835741e25	296.03204461666235	299.504632892966	3.589794780265904	0.9946063661164143
0.016145025939212698	6.888889536331401e-24	9.968808028293955e8	4.752077127835741e25	296.03204461666235	299.504632892966	3.589794780265904	0.9946063661164143
