r[m]	M[Msun]	rho[g/cm^3]	P[N/m^2]	n_e[pm^-3]	n_p[pm^-3]	muF_e[MeV]	B
0.01	1.5663305752453313e-37	1.3419579744588312e11	3.3245420504534972e28	39834.79175809602	120156.42375975827	20.345707060037597	0.9717939482977996
0.010035887719392532	3.0798894530424285e-24	1.3419579744588312e11	3.3245420504534972e28	39834.79175809602	120156.42375975827	20.345707060037597	0.9717939482977996
0.010071904231625402	6.2184113154567194e-24	1.3419579744588312e11	3.3245420504534972e28	39834.79175809602	120156.42375975827	20.345707060037597	0.9717939482977996
0.010108049998906703	9.374965781754574e-24	1.3419579744588312e11	3.3245420504534972e28	39834.79175809602	120156.42375975827	20.345707060037597	0.9717939482977996
0.010144325485103368	1.2547079753651359e-23	1.3419579744588312e11	3.3245420504534972e28	39834.79175809602	120156.42375975827	20.345707060037597	0.9717939482977996
0.010180731155746957	1.5785598788284483e-23	1.3419579744588312e11	3.3245420504534972e28	39834.79175809602	120156.42375975827	20.345707060037597	0.9717939482977996
0.010217267478039782	1.9052161063464532e-23	1.3419579744588312e11	3.3245420504534972e28	39834.79175809602	120156.42375975827	20.345707060037597	0.9717939482977996
0.010253934920860835	2.2315513092698667e-23	1.3419579744588312e11	3.3245420504534972e28	39834.79175809602	120156.42375975827	20.345707060037597	0.9717939482977996
0.010290733954771748	2.5607967512105328e-23	1.3419579744588312e11	3.3245420504534972e28	39834.79175809602	120156.42375975827	20.345707060037597	0.9717939482977996
0.010327665052022972	2.8936132924195996e-23	1.3419579744588312e11	3.3245420504534972e28	39834.79175809602	120156.42375975827	20.345707060037597	0.9717939482977996
0.010364728686559677	3.2300309303632956e-23	1.3419579744588312e11	3.3245420504534972e28	39834.79175809602	120156.42375975827	20.345707060037597	0.9717939482977996
0.010401925334027977	3.570079893705535e-23	1.3419579744588312e11	3.3245420504534972e28	39834.79175809602	120156.42375975827	20.345707060037597	0.9717939482977996
0.010439255471780963	3.913790644025309e-23	1.3419579744588312e11	3.3245420504534972e28	39834.79175809602	120156.42375975827	20.345707060037597	0.9717939482977996
0.010476719578884785	4.2611956610904975e-23	1.3419579744588312e11	3.3245420504534972e28	39834.79175809602	120156.42375975827	20.345707060037597	0.9717939482977996
0.01051431813612493	4.612364443909386e-23	1.3419579744588312e11	3.3245420504534972e28	39834.79175809602	120156.42375975827	20.345707060037597	0.9717939482977996
0.010552051626012235	4.967344266236689e-23	1.3419579744588312e11	3.3245420504534972e28	39834.79175809602	120156.42375975827	20.345707060037597	0.9717939482977996
0.010589920532789218	5.326167146174742e-23	1.3419579744588312e11	3.3245420504534972e28	39834.79175809602	120156.42375975827	20.345707060037597	0.9717939482977996
0.010627925342436234	5.688865348612099e-23	1.3419579744588312e11	3.3245420504534972e28	39834.79175809602	120156.42375975827	20.345707060037597	0.9717939482977996
0.010666066542677646	6.055471387057025e-23	1.3419579744588312e11	3.3245420504534972e28	39834.79175809602	120156.42375975827	20.345707060037597	0.9717939482977996
0.010704344622988214	6.426018268010281e-23	1.3419579744588312e11	3.3245420504534972e28	39834.79175809602	120156.42375975827	20.345707060037597	0.9717939482977996
0.010742760074599312	6.800573077615099e-23	1.3419579744588312e11	3.3245420504534972e28	39834.79175809602	120156.42375975827	20.345707060037597	0.9717939482977996
0.01078131339050516	7.179193672836872e-23	1.3419579744588312e11	3.3245420504534972e28	39834.79175809602	120156.42375975827	20.345707060037597	0.9717939482977996
0.010820005065469322	7.561914214264704e-23	1.3419579744588312e11	3.3245420504534972e28	39834.79175809602	120156.42375975827	20.345707060037597	0.9717939482977996
0.010858835596030856	7.948769125793662e-23	1.3419579744588312e11	3.3245420504534972e28	39834.79175809602	120156.42375975827	20.345707060037597	0.9717939482977996
0.010897805480510853	8.339793096583121e-23	1.3419579744588312e11	3.3245420504534972e28	39834.79175809602	120156.42375975827	20.345707060037597	0.9717939482977996
0.01093691521901877	8.735021113302124e-23	1.3419579744588312e11	3.3245420504534972e28	39834.79175809602	120156.42375975827	20.345707060037597	0.9717939482977996
0.010976165313458776	9.134499075661706e-23	1.3419579744588312e11	3.3245420504534972e28	39834.79175809602	120156.42375975827	20.345707060037597	0.9717939482977996
0.011015556267536341	9.53827866770604e-23	1.3419579744588312e11	3.3245420504534972e28	39834.79175809602	120156.42375975827	20.345707060037597	0.9717939482977996
0.01105508858676454	9.946406890146695e-23	1.3419579744588312e11	3.3245420504534972e28	39834.79175809602	120156.42375975827	20.345707060037597	0.9717939482977996
0.011094762778470678	1.035893125754106e-22	1.3419579744588312e11	3.3245420504534972e28	39834.79175809602	120156.42375975827	20.345707060037597	0.9717939482977996
0.011134579351802745	1.077589980389526e-22	1.3419579744588312e11	3.3245420504534972e28	39834.79175809602	120156.42375975827	20.345707060037597	0.9717939482977996
0.011174538817735882	1.119736108832752e-22	1.3419579744588312e11	3.3245420504534972e28	39834.79175809602	120156.42375975827	20.345707060037597	0.9717939482977996
0.011214641689079092	1.1623364200795747e-22	1.3419579744588312e11	3.3245420504534972e28	39834.79175809602	120156.42375975827	20.345707060037597	0.9717939482977996
0.011254888480481635	1.205395876788383e-22	1.3419579744588312e11	3.3245420504534972e28	39834.79175809602	120156.42375975827	20.345707060037597	0.9717939482977996
0.011295279708439812	1.2489194958654453e-22	1.3419579744588312e11	3.3245420504534972e28	39834.79175809602	120156.42375975827	20.345707060037597	0.9717939482977996
0.011335815891303497	1.2929123490562933e-22	1.3419579744588312e11	3.3245420504534972e28	39834.79175809602	120156.42375975827	20.345707060037597	0.9717939482977996
0.011376497549282745	1.337379563543583e-22	1.3419579744588312e11	3.3245420504534972e28	39834.79175809602	120156.42375975827	20.345707060037597	0.9717939482977996
0.011417325204454617	1.3823263225516483e-22	1.3419579744588312e11	3.3245420504534972e28	39834.79175809602	120156.42375975827	20.345707060037597	0.9717939482977996
0.011458299380769692	1.427757865957289e-22	1.3419579744588312e11	3.3245420504534972e28	39834.79175809602	120156.42375975827	20.345707060037597	0.9717939482977996
0.011499420604058957	1.473679490907579e-22	1.3419579744588312e11	3.3245420504534972e28	39834.79175809602	120156.42375975827	20.345707060037597	0.9717939482977996
0.011540689402040498	1.5200965524441263e-22	1.3419579744588312e11	3.3245420504534972e28	39834.79175809602	120156.42375975827	20.345707060037597	0.9717939482977996
0.011582106304326177	1.5670144641341189e-22	1.3419579744588312e11	3.3245420504534972e28	39834.79175809602	120156.42375975827	20.345707060037597	0.9717939482977996
0.011623671842428612	1.6144386987084991e-22	1.3419579744588312e11	3.3245420504534972e28	39834.79175809602	120156.42375975827	20.345707060037597	0.9717939482977996
0.011665386549767807	1.6623747887066921e-22	1.3419579744588312e11	3.3245420504534972e28	39834.79175809602	120156.42375975827	20.345707060037597	0.9717939482977996
0.011707250961678154	1.710828327128713e-22	1.3419579744588312e11	3.3245420504534972e28	39834.79175809602	120156.42375975827	20.345707060037597	0.9717939482977996
0.011749265615415243	1.7598049680941344e-22	1.3419579744588312e11	3.3245420504534972e28	39834.79175809602	120156.42375975827	20.345707060037597	0.9717939482977996
0.011791431050162674	1.8093104275081803e-22	1.3419579744588312e11	3.3245420504534972e28	39834.79175809602	120156.42375975827	20.345707060037597	0.9717939482977996
0.011833747807039162	1.85935048373538e-22	1.3419579744588301e11	3.324542050453494e28	39834.791758096	120156.42375975821	20.34570706003759	0.9717939482977996
0.011876216429105262	1.9099309782800717e-22	1.3419579744588301e11	3.324542050453494e28	39834.791758096	120156.42375975821	20.34570706003759	0.9717939482977996
0.011918837461370532	1.9610578164747843e-22	1.3419579744588301e11	3.324542050453494e28	39834.791758096	120156.42375975821	20.34570706003759	0.9717939482977996
0.01196161145080044	2.0127369681757816e-22	1.3419579744588301e11	3.324542050453494e28	39834.791758096	120156.42375975821	20.34570706003759	0.9717939482977996
0.01200453894632332	2.0649744684661791e-22	1.3419579744588301e11	3.324542050453494e28	39834.791758096	120156.42375975821	20.34570706003759	0.9717939482977996
0.012047620498837558	2.1177764183669794e-22	1.3419579744588301e11	3.324542050453494e28	39834.791758096	120156.42375975821	20.34570706003759	0.9717939482977996
0.01209085666121858	2.1711489855555335e-22	1.3419579744588301e11	3.324542050453494e28	39834.791758096	120156.42375975821	20.34570706003759	0.9717939482977996
0.012134247988325894	2.225098405091863e-22	1.3419579744588301e11	3.324542050453494e28	39834.791758096	120156.42375975821	20.34570706003759	0.9717939482977996
0.01217779503701036	2.2796309801531355e-22	1.3419579744588301e11	3.324542050453494e28	39834.791758096	120156.42375975821	20.34570706003759	0.9717939482977996
0.01222149836612116	2.3347530827757024e-22	1.3419579744588301e11	3.324542050453494e28	39834.791758096	120156.42375975821	20.34570706003759	0.9717939482977996
0.012265358536513123	2.3904711546056265e-22	1.3419579744588301e11	3.324542050453494e28	39834.791758096	120156.42375975821	20.34570706003759	0.9717939482977996
0.012309376111053863	2.446791707657097e-22	1.3419579744588301e11	3.324542050453494e28	39834.791758096	120156.42375975821	20.34570706003759	0.9717939482977996
0.012353551654630925	2.5037213250790626e-22	1.3419579744588301e11	3.324542050453494e28	39834.791758096	120156.42375975821	20.34570706003759	0.9717939482977996
0.012397885734159205	2.561266661930511e-22	1.3419579744588301e11	3.324542050453494e28	39834.791758096	120156.42375975821	20.34570706003759	0.9717939482977996
0.012442378918588022	2.6194344459637058e-22	1.3419579744588301e11	3.324542050453494e28	39834.791758096	120156.42375975821	20.34570706003759	0.9717939482977996
0.012487031778908605	2.6782314784164364e-22	1.3419579744588301e11	3.324542050453494e28	39834.791758096	120156.42375975821	20.34570706003759	0.9717939482977996
0.01253184488816134	2.737664634812515e-22	1.3419579744588301e11	3.324542050453494e28	39834.791758096	120156.42375975821	20.34570706003759	0.9717939482977996
0.012576818821443044	2.797740865770998e-22	1.3419579744588301e11	3.324542050453494e28	39834.791758096	120156.42375975821	20.34570706003759	0.9717939482977996
0.012621954155914536	2.8584671978245505e-22	1.3419579744588301e11	3.324542050453494e28	39834.791758096	120156.42375975821	20.34570706003759	0.9717939482977996
0.01266725147080782	2.919850734246143e-22	1.3419579744588301e11	3.324542050453494e28	39834.791758096	120156.42375975821	20.34570706003759	0.9717939482977996
0.012712711347433719	2.981898655885314e-22	1.3419579744588301e11	3.324542050453494e28	39834.791758096	120156.42375975821	20.34570706003759	0.9717939482977996
0.01275833436918924	3.044618222013129e-22	1.3419579744588301e11	3.324542050453494e28	39834.791758096	120156.42375975821	20.34570706003759	0.9717939482977996
0.012804121121564992	3.1080167711763296e-22	1.3419579744588301e11	3.324542050453494e28	39834.791758096	120156.42375975821	20.34570706003759	0.9717939482977996
0.01285007219215289	3.1721017220611447e-22	1.3419579744588301e11	3.324542050453494e28	39834.791758096	120156.42375975821	20.34570706003759	0.9717939482977996
0.012896188170653465	3.2368805743659056e-22	1.3419579744588293e11	3.3245420504534915e28	39834.79175809598	120156.42375975812	20.345707060037586	0.9717939482977996
0.012942469648883634	3.302360909683726e-22	1.3419579744588293e11	3.3245420504534915e28	39834.79175809598	120156.42375975812	20.345707060037586	0.9717939482977996
0.012988917220784208	3.3685503923943923e-22	1.3419579744588293e11	3.3245420504534915e28	39834.79175809598	120156.42375975812	20.345707060037586	0.9717939482977996
0.013035531482427441	3.4354567705659525e-22	1.3419579744588293e11	3.3245420504534915e28	39834.79175809598	120156.42375975812	20.345707060037586	0.9717939482977996
0.013082313032024851	3.5030878768664524e-22	1.3419579744588293e11	3.3245420504534915e28	39834.79175809598	120156.42375975812	20.345707060037586	0.9717939482977996
0.013129262469934708	3.5714516294850543e-22	1.3419579744588293e11	3.3245420504534915e28	39834.79175809598	120156.42375975812	20.345707060037586	0.9717939482977996
0.013176380398669899	3.6405560330636885e-22	1.3419579744588293e11	3.3245420504534915e28	39834.79175809598	120156.42375975812	20.345707060037586	0.9717939482977996
0.013223667422905597	3.7104091796384795e-22	1.3419579744588293e11	3.3245420504534915e28	39834.79175809598	120156.42375975812	20.345707060037586	0.9717939482977996
0.013271124149486937	3.7810192494614476e-22	1.3419579744588293e11	3.3245420504534915e28	39834.79175809598	120156.42375975812	20.345707060037586	0.9717939482977996
0.013318751187436959	3.8523933493454115e-22	1.3419579744588293e11	3.3245420504534915e28	39834.79175809598	120156.42375975812	20.345707060037586	0.9717939482977996
0.013366549147964354	3.9245386463708657e-22	1.3419579744588293e11	3.3245420504534915e28	39834.79175809598	120156.42375975812	20.345707060037586	0.9717939482977996
0.013414518644471215	3.9974634733227434e-22	1.3419579744588293e11	3.3245420504534915e28	39834.79175809598	120156.42375975812	20.345707060037586	0.9717939482977996
0.013462660292561109	4.071176253021911e-22	1.3419579744588293e11	3.3245420504534915e28	39834.79175809598	120156.42375975812	20.345707060037586	0.9717939482977996
0.013510974710046747	4.145685499297623e-22	1.3419579744588293e11	3.3245420504534915e28	39834.79175809598	120156.42375975812	20.345707060037586	0.9717939482977996
0.013559462516958123	4.2209998179712044e-22	1.3419579744588293e11	3.3245420504534915e28	39834.79175809598	120156.42375975812	20.345707060037586	0.9717939482977996
0.013608124335550363	4.297127907849856e-22	1.3419579744588293e11	3.3245420504534915e28	39834.79175809598	120156.42375975812	20.345707060037586	0.9717939482977996
0.013656960790311654	4.374078561731284e-22	1.3419579744588284e11	3.3245420504534884e28	39834.79175809595	120156.42375975805	20.34570706003758	0.9717939482977996
0.013705972507971433	4.451860667419532e-22	1.3419579744588284e11	3.3245420504534884e28	39834.79175809595	120156.42375975805	20.34570706003758	0.9717939482977996
0.013755160117508216	4.530483208751193e-22	1.3419579744588284e11	3.3245420504534884e28	39834.79175809595	120156.42375975805	20.34570706003758	0.9717939482977996
0.013804524250157862	4.609955266633343e-22	1.3419579744588284e11	3.3245420504534884e28	39834.79175809595	120156.42375975805	20.34570706003758	0.9717939482977996
0.013854065539421595	4.69028602009227e-22	1.3419579744588284e11	3.3245420504534884e28	39834.79175809595	120156.42375975805	20.34570706003758	0.9717939482977996
0.013903784621074044	4.771484747333489e-22	1.3419579744588284e11	3.3245420504534884e28	39834.79175809595	120156.42375975805	20.34570706003758	0.9717939482977996
0.013953682133171602	4.853560826813724e-22	1.3419579744588284e11	3.3245420504534884e28	39834.79175809595	120156.42375975805	20.34570706003758	0.9717939482977996
0.014003758716060386	4.936523738323721e-22	1.3419579744588284e11	3.3245420504534884e28	39834.79175809595	120156.42375975805	20.34570706003758	0.9717939482977996
0.014054015012384654	5.02038306408351e-22	1.3419579744588284e11	3.3245420504534884e28	39834.79175809595	120156.42375975805	20.34570706003758	0.9717939482977996
0.01410445166709497	5.105148489849012e-22	1.3419579744588284e11	3.3245420504534884e28	39834.79175809595	120156.42375975805	20.34570706003758	0.9717939482977996
0.014155069327456393	5.190829806030599e-22	1.3419579744588284e11	3.3245420504534884e28	39834.79175809595	120156.42375975805	20.34570706003758	0.9717939482977996
0.01420586864305698	5.27743690882421e-22	1.3419579744588284e11	3.3245420504534884e28	39834.79175809595	120156.42375975805	20.34570706003758	0.9717939482977996
0.014256850265815899	5.364979801353987e-22	1.3419579744588284e11	3.3245420504534884e28	39834.79175809595	120156.42375975805	20.34570706003758	0.9717939482977996
0.014308014849991993	5.453468594827978e-22	1.3419579744588275e11	3.3245420504534853e28	39834.79175809592	120156.42375975799	20.345707060037576	0.9717939482977996
0.014359363052192087	5.542913509705826e-22	1.3419579744588275e11	3.3245420504534853e28	39834.79175809592	120156.42375975799	20.345707060037576	0.9717939482977996
0.014410895531379343	5.6333248768791035e-22	1.3419579744588275e11	3.3245420504534853e28	39834.79175809592	120156.42375975799	20.345707060037576	0.9717939482977996
0.014462612948881895	5.724713138864854e-22	1.3419579744588275e11	3.3245420504534853e28	39834.79175809592	120156.42375975799	20.345707060037576	0.9717939482977996
0.01451451596840112	5.8170888510113155e-22	1.3419579744588275e11	3.3245420504534853e28	39834.79175809592	120156.42375975799	20.345707060037576	0.9717939482977996
0.01456660525602036	5.910462682717424e-22	1.3419579744588275e11	3.3245420504534853e28	39834.79175809592	120156.42375975799	20.345707060037576	0.9717939482977996
0.014618881480213373	6.004845418664964e-22	1.3419579744588275e11	3.3245420504534853e28	39834.79175809592	120156.42375975799	20.345707060037576	0.9717939482977996
0.014671345311852829	6.100247960064038e-22	1.3419579744588275e11	3.3245420504534853e28	39834.79175809592	120156.42375975799	20.345707060037576	0.9717939482977996
0.014723997424219128	6.196681325912552e-22	1.3419579744588275e11	3.3245420504534853e28	39834.79175809592	120156.42375975799	20.345707060037576	0.9717939482977996
0.014776838493008801	6.294156654268467e-22	1.3419579744588275e11	3.3245420504534853e28	39834.79175809592	120156.42375975799	20.345707060037576	0.9717939482977996
0.014829869196343385	6.392685203536606e-22	1.3419579744588266e11	3.3245420504534827e28	39834.79175809589	120156.42375975792	20.345707060037572	0.9717939482977996
0.014883090214778048	6.492278353768877e-22	1.3419579744588266e11	3.3245420504534827e28	39834.79175809589	120156.42375975792	20.345707060037572	0.9717939482977996
0.014936502231310215	6.592947607978458e-22	1.3419579744588266e11	3.3245420504534827e28	39834.79175809589	120156.42375975792	20.345707060037572	0.9717939482977996
0.014990105931388564	6.694704593468829e-22	1.3419579744588266e11	3.3245420504534827e28	39834.79175809589	120156.42375975792	20.345707060037572	0.9717939482977996
0.015043902002921562	6.797561063176238e-22	1.3419579744588266e11	3.3245420504534827e28	39834.79175809589	120156.42375975792	20.345707060037572	0.9717939482977996
0.01509789113628652	6.901528897027591e-22	1.3419579744588266e11	3.3245420504534827e28	39834.79175809589	120156.42375975792	20.345707060037572	0.9717939482977996
0.015152074024338354	7.006620103312395e-22	1.3419579744588266e11	3.3245420504534827e28	39834.79175809589	120156.42375975792	20.345707060037572	0.9717939482977996
0.015206451362418385	7.112846820069562e-22	1.3419579744588266e11	3.3245420504534827e28	39834.79175809589	120156.42375975792	20.345707060037572	0.9717939482977996
0.01526102384836345	7.220221316489677e-22	1.3419579744588266e11	3.3245420504534827e28	39834.79175809589	120156.42375975792	20.345707060037572	0.9717939482977996
0.015315792182514758	7.3287559943319275e-22	1.3419579744588266e11	3.3245420504534827e28	39834.79175809589	120156.42375975792	20.345707060037572	0.9717939482977996
0.0153707570677268	7.438463389356342e-22	1.3419579744588258e11	3.3245420504534796e28	39834.79175809587	120156.4237597578	20.34570706003757	0.9717939482977996
0.015425919209376566	7.549356172772062e-22	1.3419579744588258e11	3.3245420504534796e28	39834.79175809587	120156.4237597578	20.34570706003757	0.9717939482977996
0.015481279315372362	7.661447152700404e-22	1.3419579744588258e11	3.3245420504534796e28	39834.79175809587	120156.4237597578	20.34570706003757	0.9717939482977996
