r[m]	M[Msun]	rho[g/cm^3]	P[N/m^2]	n_e[pm^-3]	n_p[pm^-3]	muF_e[MeV]	B
0.010000000000000014	1.8489908490404622e-41	1.9849251208995646e6	7.400481651549634e21	0.5874570330313648	0.5971362954331166	0.21187272045493477	0.9996247323973056
0.010041413466168296	5.282649463352319e-29	1.9849251208995646e6	7.400481651549634e21	0.5874570330313648	0.5971362954331166	0.21187272045493477	0.9996247323973056
0.010082998439854626	1.0759764995508975e-28	1.9849251208995646e6	7.400481651549634e21	0.5874570330313648	0.5971362954331166	0.21187272045493477	0.9996247323973056
0.010124755631330999	1.6423273096539558e-28	1.9849251208995646e6	7.400481651549634e21	0.5874570330313648	0.5971362954331166	0.21187272045493477	0.9996247323973056
0.010166685753811024	2.2264864498870615e-28	1.9849251208995646e6	7.400481651549634e21	0.5874570330313648	0.5971362954331166	0.21187272045493477	0.9996247323973056
0.010208789523461964	2.8275989906698036e-28	1.9849251208995646e6	7.400481651549634e21	0.5874570330313648	0.5971362954331166	0.21187272045493477	0.9996247323973056
0.010251067659416862	3.4447855670473087e-28	1.9849251208995646e6	7.400481651549634e21	0.5874570330313648	0.5971362954331166	0.21187272045493477	0.9996247323973056
0.010293520883787063	4.0771419395604645e-28	1.9849251208995646e6	7.400481651549634e21	0.5874570330313648	0.5971362954331166	0.21187272045493477	0.9996247323973056
0.010336149921674425	4.723738548435293e-28	1.9849251208995646e6	7.400481651549634e21	0.5874570330313648	0.5971362954331166	0.21187272045493477	0.9996247323973056
0.010378955501183581	5.383620061002373e-28	1.9849251208995646e6	7.400481651549634e21	0.5874570330313648	0.5971362954331166	0.21187272045493477	0.9996247323973056
0.010421938353434615	6.055804912257965e-28	1.9849251208995646e6	7.400481651549634e21	0.5874570330313648	0.5971362954331166	0.21187272045493477	0.9996247323973056
0.010465099212575444	6.739284838459417e-28	1.9849251208995646e6	7.400481651549634e21	0.5874570330313648	0.5971362954331166	0.21187272045493477	0.9996247323973056
0.010508438815794215	7.433024403662121e-28	1.9849251208995646e6	7.400481651549634e21	0.5874570330313648	0.5971362954331166	0.21187272045493477	0.9996247323973056
0.010551957903332148	8.135960519106412e-28	1.9849251208995646e6	7.400481651549634e21	0.5874570330313648	0.5971362954331166	0.21187272045493477	0.9996247323973056
0.010595657218496068	8.847001955342507e-28	1.9849251208995646e6	7.400481651549634e21	0.5874570330313648	0.5971362954331166	0.21187272045493477	0.9996247323973056
0.010639537507670955	9.565028846996808e-28	1.9849251208995646e6	7.400481651549634e21	0.5874570330313648	0.5971362954331166	0.21187272045493477	0.9996247323973056
0.010683599520332966	1.0288892190084772e-27	1.9849251208995646e6	7.400481651549634e21	0.5874570330313648	0.5971362954331166	0.21187272045493477	0.9996247323973056
0.010727844009062085	1.1017413331752457e-27	1.9849251208995646e6	7.400481651549634e21	0.5874570330313648	0.5971362954331166	0.21187272045493477	0.9996247323973056
0.010772271729554873	1.1749383452348758e-27	1.9849251208995646e6	7.400481651549634e21	0.5874570330313648	0.5971362954331166	0.21187272045493477	0.9996247323973056
0.010816883440637618	1.2483563039726426e-27	1.9849251208995646e6	7.400481651549634e21	0.5874570330313648	0.5971362954331166	0.21187272045493477	0.9996247323973056
0.01086167990427917	1.3218681355652267e-27	1.9849251208995646e6	7.400481651549634e21	0.5874570330313648	0.5971362954331166	0.21187272045493477	0.9996247323973056
0.010906661885603826	1.3953435894222108e-27	1.9849251208995646e6	7.400481651549634e21	0.5874570330313648	0.5971362954331166	0.21187272045493477	0.9996247323973056
0.010951830152904659	1.4686491832176103e-27	1.9849251208995646e6	7.400481651549634e21	0.5874570330313648	0.5971362954331166	0.21187272045493477	0.9996247323973056
0.010997185477656511	1.541648147098929e-27	1.9849251208995646e6	7.400481651549634e21	0.5874570330313648	0.5971362954331166	0.21187272045493477	0.9996247323973056
0.011042728634529035	1.6142003670628442e-27	1.9849251208995646e6	7.400481651549634e21	0.5874570330313648	0.5971362954331166	0.21187272045493477	0.9996247323973056
0.01108846040140019	1.6861623274867482e-27	1.9849251208995646e6	7.400481651549634e21	0.5874570330313648	0.5971362954331166	0.21187272045493477	0.9996247323973056
0.011134381559369405	1.757708274929909e-27	1.9849251208995646e6	7.400481651549634e21	0.5874570330313648	0.5971362954331166	0.21187272045493477	0.9996247323973056
0.011180492892770774	1.8313709628447924e-27	1.9849251208995646e6	7.400481651549634e21	0.5874570330313648	0.5971362954331166	0.21187272045493477	0.9996247323973056
0.01122679518918672	1.907622946647967e-27	1.9849251208995646e6	7.400481651549634e21	0.5874570330313648	0.5971362954331166	0.21187272045493477	0.9996247323973056
0.011273289239461326	1.986336541580055e-27	1.9849251208995646e6	7.400481651549634e21	0.5874570330313648	0.5971362954331166	0.21187272045493477	0.9996247323973056
0.011319975837713693	2.0673804220920144e-27	1.9849251208995646e6	7.400481651549634e21	0.5874570330313648	0.5971362954331166	0.21187272045493477	0.9996247323973056
0.011366855781351784	2.150619556446229e-27	1.9849251208995646e6	7.400481651549634e21	0.5874570330313648	0.5971362954331166	0.21187272045493477	0.9996247323973056
0.011413929871085903	2.2359151403227893e-27	1.9849251208995646e6	7.400481651549634e21	0.5874570330313648	0.5971362954331166	0.21187272045493477	0.9996247323973056
0.011461198910942239	2.3231245294177944e-27	1.9849251208995646e6	7.400481651549634e21	0.5874570330313648	0.5971362954331166	0.21187272045493477	0.9996247323973056
0.011508663708276863	2.412101171020245e-27	1.9849251208995646e6	7.400481651549634e21	0.5874570330313648	0.5971362954331166	0.21187272045493477	0.9996247323973056
0.011556325073789394	2.5026945345518363e-27	1.9849251208995646e6	7.400481651549634e21	0.5874570330313648	0.5971362954331166	0.21187272045493477	0.9996247323973056
0.011604183821536697	2.5947500410557643e-27	1.9849251208995646e6	7.400481651549634e21	0.5874570330313648	0.5971362954331166	0.21187272045493477	0.9996247323973056
0.011652240768947069	2.6881089916207326e-27	1.9849251208995646e6	7.400481651549634e21	0.5874570330313648	0.5971362954331166	0.21187272045493477	0.9996247323973056
0.01170049673683406	2.7826084947236893e-27	1.9849251208995646e6	7.400481651549634e21	0.5874570330313648	0.5971362954331166	0.21187272045493477	0.9996247323973056
0.011748952549410356	2.8780813924769356e-27	1.9849251208995646e6	7.400481651549634e21	0.5874570330313648	0.5971362954331166	0.21187272045493477	0.9996247323973056
0.01179760903430213	2.9743561857651707e-27	1.9849251208995646e6	7.400481651549634e21	0.5874570330313648	0.5971362954331166	0.21187272045493477	0.9996247323973056
0.011846467022563045	3.0712569582553958e-27	1.9849251208995646e6	7.400481651549634e21	0.5874570330313648	0.5971362954331166	0.21187272045493477	0.9996247323973056
0.0118955273486883	3.1686032992646678e-27	1.9849251208995646e6	7.400481651549634e21	0.5874570330313648	0.5971362954331166	0.21187272045493477	0.9996247323973056
0.011944790850629178	3.2662102254707606e-27	1.9849251208995646e6	7.400481651549634e21	0.5874570330313648	0.5971362954331166	0.21187272045493477	0.9996247323973056
0.011994258369807198	3.36388810144782e-27	1.9849251208995646e6	7.400481651549634e21	0.5874570330313648	0.5971362954331166	0.21187272045493477	0.9996247323973056
0.01204393075112836	3.46144255901163e-27	1.9849251208995646e6	7.400481651549634e21	0.5874570330313648	0.5971362954331166	0.21187272045493477	0.9996247323973056
0.012093808842997858	3.558674415358652e-27	1.9849251208995646e6	7.400481651549634e21	0.5874570330313648	0.5971362954331166	0.21187272045493477	0.9996247323973056
0.012143893497334421	3.655379589980464e-27	1.9849251208995646e6	7.400481651549634e21	0.5874570330313648	0.5971362954331166	0.21187272045493477	0.9996247323973056
0.012194185569584728	3.751349020337401e-27	1.9849251208995646e6	7.400481651549634e21	0.5874570330313648	0.5971362954331166	0.21187272045493477	0.9996247323973056
0.0122446859187383	3.846579881369437e-27	1.9849251208995646e6	7.400481651549634e21	0.5874570330313648	0.5971362954331166	0.21187272045493477	0.9996247323973056
0.01229539540734204	3.944380568151733e-27	1.9849251208995646e6	7.400481651549634e21	0.5874570330313648	0.5971362954331166	0.21187272045493477	0.9996247323973056
0.0123463149015148	4.045897574230109e-27	1.9849251208995646e6	7.400481651549634e21	0.5874570330313648	0.5971362954331166	0.21187272045493477	0.9996247323973056
0.01239744527096248	4.1510541324783636e-27	1.9849251208995646e6	7.400481651549634e21	0.5874570330313648	0.5971362954331166	0.21187272045493477	0.9996247323973056
0.012448787388992742	4.259770900368909e-27	1.9849251208995646e6	7.400481651549634e21	0.5874570330313648	0.5971362954331166	0.21187272045493477	0.9996247323973056
0.012500342132529759	4.371965911949139e-27	1.9849251208995646e6	7.400481651549634e21	0.5874570330313648	0.5971362954331166	0.21187272045493477	0.9996247323973056
0.012552110382129505	4.487554529077604e-27	1.9849251208995646e6	7.400481651549634e21	0.5874570330313648	0.5971362954331166	0.21187272045493477	0.9996247323973056
0.01260409302199464	4.606449391907459e-27	1.9849251208995646e6	7.400481651549634e21	0.5874570330313648	0.5971362954331166	0.21187272045493477	0.9996247323973056
0.012656290939989464	4.728560368607574e-27	1.9849251208995646e6	7.400481651549634e21	0.5874570330313648	0.5971362954331166	0.21187272045493477	0.9996247323973056
0.012708705027655379	4.853794504311591e-27	1.9849251208995646e6	7.400481651549634e21	0.5874570330313648	0.5971362954331166	0.21187272045493477	0.9996247323973056
0.012761336180225978	4.982055969281989e-27	1.9849251208995646e6	7.400481651549634e21	0.5874570330313648	0.5971362954331166	0.21187272045493477	0.9996247323973056
0.012814185296642163	5.1132460062790205e-27	1.9849251208995646e6	7.400481651549634e21	0.5874570330313648	0.5971362954331166	0.21187272045493477	0.9996247323973056
0.012867253279567819	5.247262877124668e-27	1.9849251208995646e6	7.400481651549634e21	0.5874570330313648	0.5971362954331166	0.21187272045493477	0.9996247323973056
0.012920541035405079	5.3840018084478185e-27	1.9849251208995646e6	7.400481651549634e21	0.5874570330313648	0.5971362954331166	0.21187272045493477	0.9996247323973056
0.012974049474309643	5.5233549366004175e-27	1.9849251208995646e6	7.400481651549634e21	0.5874570330313648	0.5971362954331166	0.21187272045493477	0.9996247323973056
0.013027779510206635	5.665211251734062e-27	1.9849251208995646e6	7.400481651549634e21	0.5874570330313648	0.5971362954331166	0.21187272045493477	0.9996247323973056
0.013081732060806064	5.809456541022948e-27	1.9849251208995646e6	7.400481651549634e21	0.5874570330313648	0.5971362954331166	0.21187272045493477	0.9996247323973056
0.013135908047618335	5.955973331022271e-27	1.9849251208995646e6	7.400481651549634e21	0.5874570330313648	0.5971362954331166	0.21187272045493477	0.9996247323973056
0.013190308395970303	6.104640829151272e-27	1.9849251208995646e6	7.400481651549634e21	0.5874570330313648	0.5971362954331166	0.21187272045493477	0.9996247323973056
0.013244934035020927	6.255334864286215e-27	1.9849251208995646e6	7.400481651549634e21	0.5874570330313648	0.5971362954331166	0.21187272045493477	0.9996247323973056
0.01329978589777697	6.407927826451893e-27	1.9849251208995646e6	7.400481651549634e21	0.5874570330313648	0.5971362954331166	0.21187272045493477	0.9996247323973056
0.013354864921109266	6.562288605600588e-27	1.9849251208995646e6	7.400481651549634e21	0.5874570330313648	0.5971362954331166	0.21187272045493477	0.9996247323973056
0.013410172045768554	6.718282529462899e-27	1.9849251208995646e6	7.400481651549634e21	0.5874570330313648	0.5971362954331166	0.21187272045493477	0.9996247323973056
0.01346570821640138	6.875771300458852e-27	1.9849251208995646e6	7.400481651549634e21	0.5874570330313648	0.5971362954331166	0.21187272045493477	0.9996247323973056
0.013521474381566567	7.034612931657576e-27	1.9849251208995646e6	7.400481651549634e21	0.5874570330313648	0.5971362954331166	0.21187272045493477	0.9996247323973056
0.013577471493751249	7.194661681769403e-27	1.9849251208995646e6	7.400481651549634e21	0.5874570330313648	0.5971362954331166	0.21187272045493477	0.9996247323973056
0.013633700509386976	7.355767989158384e-27	1.9849251208995646e6	7.400481651549634e21	0.5874570330313648	0.5971362954331166	0.21187272045493477	0.9996247323973056
0.013690162388866372	7.517778404862807e-27	1.9849251208995646e6	7.400481651549634e21	0.5874570330313648	0.5971362954331166	0.21187272045493477	0.9996247323973056
0.013746858096559386	7.680535524607286e-27	1.9849251208995646e6	7.400481651549634e21	0.5874570330313648	0.5971362954331166	0.21187272045493477	0.9996247323973056
0.013803788600829588	7.843877919793504e-27	1.9849251208995646e6	7.400481651549634e21	0.5874570330313648	0.5971362954331166	0.21187272045493477	0.9996247323973056
0.013860954874051099	8.007640067457264e-27	1.9849251208995646e6	7.400481651549634e21	0.5874570330313648	0.5971362954331166	0.21187272045493477	0.9996247323973056
0.013918357892624758	8.171652279173262e-27	1.9849251208995646e6	7.400481651549634e21	0.5874570330313648	0.5971362954331166	0.21187272045493477	0.9996247323973056
0.01397599863699518	8.335740628897784e-27	1.9849251208995646e6	7.400481651549634e21	0.5874570330313648	0.5971362954331166	0.21187272045493477	0.9996247323973056
0.014033878091667295	8.499726879730541e-27	1.9849251208995646e6	7.400481651549634e21	0.5874570330313648	0.5971362954331166	0.21187272045493477	0.9996247323973056
0.014091997245223257	8.663428409583114e-27	1.9849251208995646e6	7.400481651549634e21	0.5874570330313648	0.5971362954331166	0.21187272045493477	0.9996247323973056
0.01415035709033911	8.826658135737046e-27	1.9849251208995646e6	7.400481651549634e21	0.5874570330313648	0.5971362954331166	0.21187272045493477	0.9996247323973056
0.014208958623802155	8.989224438278953e-27	1.9849251208995646e6	7.400481651549634e21	0.5874570330313648	0.5971362954331166	0.21187272045493477	0.9996247323973056
0.014267802846527487	9.150931082392667e-27	1.9849251208995646e6	7.400481651549634e21	0.5874570330313648	0.5971362954331166	0.21187272045493477	0.9996247323973056
0.014326890763575522	9.31157713949766e-27	1.9849251208995646e6	7.400481651549634e21	0.5874570330313648	0.5971362954331166	0.21187272045493477	0.9996247323973056
0.01438622338416898	9.470956907213542e-27	1.9849251208995646e6	7.400481651549634e21	0.5874570330313648	0.5971362954331166	0.21187272045493477	0.9996247323973056
0.01444580172170994	9.628859828136057e-27	1.9849251208995646e6	7.400481651549634e21	0.5874570330313648	0.5971362954331166	0.21187272045493477	0.9996247323973056
0.014505626793797511	9.787415854305115e-27	1.9849251208995646e6	7.400481651549634e21	0.5874570330313648	0.5971362954331166	0.21187272045493477	0.9996247323973056
0.014565699622245036	9.951863372132311e-27	1.9849251208995646e6	7.400481651549634e21	0.5874570330313648	0.5971362954331166	0.21187272045493477	0.9996247323973056
0.014626021233097353	1.0122261117599706e-26	1.9849251208995646e6	7.400481651549634e21	0.5874570330313648	0.5971362954331166	0.21187272045493477	0.9996247323973056
0.014686592656648697	1.0298445324425904e-26	1.9849251208995646e6	7.400481651549634e21	0.5874570330313648	0.5971362954331166	0.21187272045493477	0.9996247323973056
0.0147474149274601	1.0480247088258954e-26	1.9849251208995646e6	7.400481651549634e21	0.5874570330313648	0.5971362954331166	0.21187272045493477	0.9996247323973056
0.014808489084376895	1.0667492272250632e-26	1.9849251208995646e6	7.400481651549634e21	0.5874570330313648	0.5971362954331166	0.21187272045493477	0.9996247323973056
0.014869816170546815	1.0860001411183548e-26	1.9849251208995646e6	7.400481651549634e21	0.5874570330313648	0.5971362954331166	0.21187272045493477	0.9996247323973056
0.014931397233437626	1.1057589614127253e-26	1.9849251208995646e6	7.400481651549634e21	0.5874570330313648	0.5971362954331166	0.21187272045493477	0.9996247323973056
0.014993233324854839	1.1260066465604399e-26	1.9849251208995646e6	7.400481651549634e21	0.5874570330313648	0.5971362954331166	0.21187272045493477	0.9996247323973056
0.015055325500960039	1.1467235925247592e-26	1.9849251208995646e6	7.400481651549634e21	0.5874570330313648	0.5971362954331166	0.21187272045493477	0.9996247323973056
0.015117674822288749	1.167889622592249e-26	1.9849251208995646e6	7.400481651549634e21	0.5874570330313648	0.5971362954331166	0.21187272045493477	0.9996247323973056
0.01518028235376834	1.1894839770296981e-26	1.9849251208995646e6	7.400481651549634e21	0.5874570330313648	0.5971362954331166	0.21187272045493477	0.9996247323973056
0.015243149164736612	1.211485302583685e-26	1.9849251208995646e6	7.400481651549634e21	0.5874570330313648	0.5971362954331166	0.21187272045493477	0.9996247323973056
0.015306276328959862	1.2338716418201937e-26	1.9849251208995646e6	7.400481651549634e21	0.5874570330313648	0.5971362954331166	0.21187272045493477	0.9996247323973056
0.015369664924651034	1.2566204223022194e-26	1.9849251208995646e6	7.400481651549634e21	0.5874570330313648	0.5971362954331166	0.21187272045493477	0.9996247323973056
0.015433316034488519	1.279708445603309e-26	1.9849251208995646e6	7.400481651549634e21	0.5874570330313648	0.5971362954331166	0.21187272045493477	0.9996247323973056
0.015497230745634449	1.3031118761543258e-26	1.9849251208995646e6	7.400481651549634e21	0.5874570330313648	0.5971362954331166	0.21187272045493477	0.9996247323973056
0.015561410149753086	1.3268062299213076e-26	1.9849251208995646e6	7.400481651549634e21	0.5874570330313648	0.5971362954331166	0.21187272045493477	0.9996247323973056
0.01562585534302984	1.3507663629122764e-26	1.9849251208995646e6	7.400481651549634e21	0.5874570330313648	0.5971362954331166	0.21187272045493477	0.9996247323973056
0.015690567426189805	1.374966459510164e-26	1.9849251208995646e6	7.400481651549634e21	0.5874570330313648	0.5971362954331166	0.21187272045493477	0.9996247323973056
0.015755547504516368	1.3993800206296713e-26	1.9849251208995646e6	7.400481651549634e21	0.5874570330313648	0.5971362954331166	0.21187272045493477	0.9996247323973056
0.01582079668787047	1.4239798516957775e-26	1.9849251208995646e6	7.400481651549634e21	0.5874570330313648	0.5971362954331166	0.21187272045493477	0.9996247323973056
0.01588631609070937	1.4487380504410087e-26	1.9849251208995646e6	7.400481651549634e21	0.5874570330313648	0.5971362954331166	0.21187272045493477	0.9996247323973056
0.015952106832105493	1.4736259945191477e-26	1.9849251208995646e6	7.400481651549634e21	0.5874570330313648	0.5971362954331166	0.21187272045493477	0.9996247323973056
0.016018170035765913	1.4986143289330327e-26	1.9849251208995646e6	7.400481651549634e21	0.5874570330313648	0.5971362954331166	0.21187272045493477	0.9996247323973056
0.016084506830051373	1.523672953273436e-26	1.9849251208995646e6	7.400481651549634e21	0.5874570330313648	0.5971362954331166	0.21187272045493477	0.9996247323973056
0.016151118347995354	1.5487710087665987e-26	1.9849251208995646e6	7.400481651549634e21	0.5874570330313648	0.5971362954331166	0.21187272045493477	0.9996247323973056
0.016218005727323813	1.5738768651279794e-26	1.9849251208995646e6	7.400481651549634e21	0.5874570330313648	0.5971362954331166	0.21187272045493477	0.9996247323973056
0.01628517011047443	1.5989581072190937e-26	1.9849251208995646e6	7.400481651549634e21	0.5874570330313648	0.5971362954331166	0.21187272045493477	0.9996247323973056
0.016352612644615912	1.623981521504905e-26	1.9849251208995646e6	7.400481651549634e21	0.5874570330313648	0.5971362954331166	0.21187272045493477	0.9996247323973056
0.016420334481667992	1.6489130823092508e-26	1.9849251208995646e6	7.400481651549634e21	0.5874570330313648	0.5971362954331166	0.21187272045493477	0.9996247323973056
0.016488336778320904	1.673717937865017e-26	1.9849251208995646e6	7.400481651549634e21	0.5874570330313648	0.5971362954331166	0.21187272045493477	0.9996247323973056
