r[m]	M[Msun]	rho[g/cm^3]	P[N/m^2]	n_e[pm^-3]	n_p[pm^-3]	muF_e[MeV]	B
0.010000000000000005	7.774166069829216e-42	1.654560897553947e6	5.590071908232983e21	0.4894832781819111	0.49775033419413556	0.19085787952239902	0.9996611733811491
0.010041478256021011	4.4109249535255967e-29	1.654560897553947e6	5.590071908232983e21	0.4894832781819111	0.49775033419413556	0.19085787952239902	0.9996611733811491
0.010083128556614269	8.985920810462002e-29	1.654560897553947e6	5.590071908232983e21	0.4894832781819111	0.49775033419413556	0.19085787952239902	0.9996611733811491
0.010124951615390666	1.3718955796870298e-28	1.654560897553947e6	5.590071908232983e21	0.4894832781819111	0.49775033419413556	0.19085787952239902	0.9996611733811491
0.010166948148921011	1.8603818308437642e-28	1.654560897553947e6	5.590071908232983e21	0.4894832781819111	0.49775033419413556	0.19085787952239902	0.9996611733811491
0.010209118876748293	2.3634113640456827e-28	1.654560897553947e6	5.590071908232983e21	0.4894832781819111	0.49775033419413556	0.19085787952239902	0.9996611733811491
0.010251464521400156	2.8803260667823286e-28	1.654560897553947e6	5.590071908232983e21	0.4894832781819111	0.49775033419413556	0.19085787952239902	0.9996611733811491
0.010293985808401044	3.410448847427641e-28	1.654560897553947e6	5.590071908232983e21	0.4894832781819111	0.49775033419413556	0.19085787952239902	0.9996611733811491
0.01033668346628479	3.953083293026646e-28	1.654560897553947e6	5.590071908232983e21	0.4894832781819111	0.49775033419413556	0.19085787952239902	0.9996611733811491
0.010379558226607053	4.507513321865457e-28	1.654560897553947e6	5.590071908232983e21	0.4894832781819111	0.49775033419413556	0.19085787952239902	0.9996611733811491
0.010422610823957868	5.073002830754208e-28	1.654560897553947e6	5.590071908232983e21	0.4894832781819111	0.49775033419413556	0.19085787952239902	0.9996611733811491
0.010465841995974211	5.64879533694786e-28	1.654560897553947e6	5.590071908232983e21	0.4894832781819111	0.49775033419413556	0.19085787952239902	0.9996611733811491
0.01050925248335265	6.234113614630371e-28	1.654560897553947e6	5.590071908232983e21	0.4894832781819111	0.49775033419413556	0.19085787952239902	0.9996611733811491
0.01055284302986204	6.828159325885519e-28	1.654560897553947e6	5.590071908232983e21	0.4894832781819111	0.49775033419413556	0.19085787952239902	0.9996611733811491
0.01059661438235625	7.430112646076952e-28	1.654560897553947e6	5.590071908232983e21	0.4894832781819111	0.49775033419413556	0.19085787952239902	0.9996611733811491
0.01064056729078693	8.039131883559292e-28	1.654560897553947e6	5.590071908232983e21	0.4894832781819111	0.49775033419413556	0.19085787952239902	0.9996611733811491
0.010684702508216527	8.654353093644086e-28	1.654560897553947e6	5.590071908232983e21	0.4894832781819111	0.49775033419413556	0.19085787952239902	0.9996611733811491
0.010729020790830934	9.274889686731212e-28	1.654560897553947e6	5.590071908232983e21	0.4894832781819111	0.49775033419413556	0.19085787952239902	0.9996611733811491
0.010773522897952612	9.8998320305363e-28	1.654560897553947e6	5.590071908232983e21	0.4894832781819111	0.49775033419413556	0.19085787952239902	0.9996611733811491
0.010818209592053556	1.0528247046323014e-27	1.654560897553947e6	5.590071908232983e21	0.4894832781819111	0.49775033419413556	0.19085787952239902	0.9996611733811491
0.010863081638768365	1.1159177799059529e-27	1.654560897553947e6	5.590071908232983e21	0.4894832781819111	0.49775033419413556	0.19085787952239902	0.9996611733811491
0.010908139806907358	1.1791643081414334e-27	1.654560897553947e6	5.590071908232983e21	0.4894832781819111	0.49775033419413556	0.19085787952239902	0.9996611733811491
0.010953384868469737	1.242463699150497e-27	1.654560897553947e6	5.590071908232983e21	0.4894832781819111	0.49775033419413556	0.19085787952239902	0.9996611733811491
0.010998817598656837	1.3057128504313504e-27	1.654560897553947e6	5.590071908232983e21	0.4894832781819111	0.49775033419413556	0.19085787952239902	0.9996611733811491
0.011044438775885379	1.3688061036679015e-27	1.654560897553947e6	5.590071908232983e21	0.4894832781819111	0.49775033419413556	0.19085787952239902	0.9996611733811491
0.011090249181800783	1.431635200577906e-27	1.654560897553947e6	5.590071908232983e21	0.4894832781819111	0.49775033419413556	0.19085787952239902	0.9996611733811491
0.01113624960129073	1.4940892381011198e-27	1.654560897553947e6	5.590071908232983e21	0.4894832781819111	0.49775033419413556	0.19085787952239902	0.9996611733811491
0.011182440822498344	1.5560546229175172e-27	1.654560897553947e6	5.590071908232983e21	0.4894832781819111	0.49775033419413556	0.19085787952239902	0.9996611733811491
0.011228823636835878	1.617456808162689e-27	1.654560897553947e6	5.590071908232983e21	0.4894832781819111	0.49775033419413556	0.19085787952239902	0.9996611733811491
0.011275398838998217	1.6801539506948808e-27	1.654560897553947e6	5.590071908232983e21	0.4894832781819111	0.49775033419413556	0.19085787952239902	0.9996611733811491
0.011322167226976506	1.745126918681227e-27	1.654560897553947e6	5.590071908232983e21	0.4894832781819111	0.49775033419413556	0.19085787952239902	0.9996611733811491
0.011369129602071823	1.8122768066572106e-27	1.654560897553947e6	5.590071908232983e21	0.4894832781819111	0.49775033419413556	0.19085787952239902	0.9996611733811491
0.011416286768908894	1.8815018350882217e-27	1.654560897553947e6	5.590071908232983e21	0.4894832781819111	0.49775033419413556	0.19085787952239902	0.9996611733811491
0.011463639535449897	1.9526972984349646e-27	1.654560897553947e6	5.590071908232983e21	0.4894832781819111	0.49775033419413556	0.19085787952239902	0.9996611733811491
0.011511188713008288	2.025755512426666e-27	1.654560897553947e6	5.590071908232983e21	0.4894832781819111	0.49775033419413556	0.19085787952239902	0.9996611733811491
0.011558935116262667	2.100565760531081e-27	1.654560897553947e6	5.590071908232983e21	0.4894832781819111	0.49775033419413556	0.19085787952239902	0.9996611733811491
0.011606879563270918	2.1770142396102946e-27	1.654560897553947e6	5.590071908232983e21	0.4894832781819111	0.49775033419413556	0.19085787952239902	0.9996611733811491
0.011655022875483952	2.2549840047498846e-27	1.654560897553947e6	5.590071908232983e21	0.4894832781819111	0.49775033419413556	0.19085787952239902	0.9996611733811491
0.01170336587775995	2.3343549132512805e-27	1.654560897553947e6	5.590071908232983e21	0.4894832781819111	0.49775033419413556	0.19085787952239902	0.9996611733811491
0.011751909398378474	2.415003567774524e-27	1.654560897553947e6	5.590071908232983e21	0.4894832781819111	0.49775033419413556	0.19085787952239902	0.9996611733811491
0.011800654269054632	2.496803258619902e-27	1.654560897553947e6	5.590071908232983e21	0.4894832781819111	0.49775033419413556	0.19085787952239902	0.9996611733811491
0.011849601324953354	2.579623905136452e-27	1.654560897553947e6	5.590071908232983e21	0.4894832781819111	0.49775033419413556	0.19085787952239902	0.9996611733811491
0.01189875140470368	2.6633319962449448e-27	1.654560897553947e6	5.590071908232983e21	0.4894832781819111	0.49775033419413556	0.19085787952239902	0.9996611733811491
0.011948105350413138	2.74779053006314e-27	1.654560897553947e6	5.590071908232983e21	0.4894832781819111	0.49775033419413556	0.19085787952239902	0.9996611733811491
0.011997664007682176	2.832858952620636e-27	1.654560897553947e6	5.590071908232983e21	0.4894832781819111	0.49775033419413556	0.19085787952239902	0.9996611733811491
0.01204742822561859	2.918393095650605e-27	1.654560897553947e6	5.590071908232983e21	0.4894832781819111	0.49775033419413556	0.19085787952239902	0.9996611733811491
0.012097398856852279	3.0042451134459733e-27	1.654560897553947e6	5.590071908232983e21	0.4894832781819111	0.49775033419413556	0.19085787952239902	0.9996611733811491
0.012147576757549551	3.0902634187657436e-27	1.654560897553947e6	5.590071908232983e21	0.4894832781819111	0.49775033419413556	0.19085787952239902	0.9996611733811491
0.012197962787427997	3.1762926177799577e-27	1.654560897553947e6	5.590071908232983e21	0.4894832781819111	0.49775033419413556	0.19085787952239902	0.9996611733811491
0.01224855780977116	3.262173444038533e-27	1.654560897553947e6	5.590071908232983e21	0.4894832781819111	0.49775033419413556	0.19085787952239902	0.9996611733811491
0.012299362691443336	3.347742691450987e-27	1.654560897553947e6	5.590071908232983e21	0.4894832781819111	0.49775033419413556	0.19085787952239902	0.9996611733811491
0.012350378302904424	3.432833146263138e-27	1.654560897553947e6	5.590071908232983e21	0.4894832781819111	0.49775033419413556	0.19085787952239902	0.9996611733811491
0.012401605518224838	3.517273518016842e-27	1.654560897553947e6	5.590071908232983e21	0.4894832781819111	0.49775033419413556	0.19085787952239902	0.9996611733811491
0.012453045215100482	3.600981712593145e-27	1.654560897553947e6	5.590071908232983e21	0.4894832781819111	0.49775033419413556	0.19085787952239902	0.9996611733811491
0.01250469827486774	3.686698875467115e-27	1.654560897553947e6	5.590071908232983e21	0.4894832781819111	0.49775033419413556	0.19085787952239902	0.9996611733811491
0.012556565582518777	3.775721641142341e-27	1.654560897553947e6	5.590071908232983e21	0.4894832781819111	0.49775033419413556	0.19085787952239902	0.9996611733811491
0.012608648026716403	3.8679897133545036e-27	1.654560897553947e6	5.590071908232983e21	0.4894832781819111	0.49775033419413556	0.19085787952239902	0.9996611733811491
0.012660946499809492	3.9634406993707635e-27	1.654560897553947e6	5.590071908232983e21	0.4894832781819111	0.49775033419413556	0.19085787952239902	0.9996611733811491
0.012713461897848225	4.062010070561794e-27	1.654560897553947e6	5.590071908232983e21	0.4894832781819111	0.49775033419413556	0.19085787952239902	0.9996611733811491
0.01276619512059945	4.1636311223626285e-27	1.654560897553947e6	5.590071908232983e21	0.4894832781819111	0.49775033419413556	0.19085787952239902	0.9996611733811491
0.012819147071562082	4.268234933613619e-27	1.654560897553947e6	5.590071908232983e21	0.4894832781819111	0.49775033419413556	0.19085787952239902	0.9996611733811491
0.012872318657982598	4.375750325272746e-27	1.654560897553947e6	5.590071908232983e21	0.4894832781819111	0.49775033419413556	0.19085787952239902	0.9996611733811491
0.012925710790870574	4.486103818490361e-27	1.654560897553947e6	5.590071908232983e21	0.4894832781819111	0.49775033419413556	0.19085787952239902	0.9996611733811491
0.012979324385014295	4.599219592037338e-27	1.654560897553947e6	5.590071908232983e21	0.4894832781819111	0.49775033419413556	0.19085787952239902	0.9996611733811491
0.013033160358996371	4.7150194390774305e-27	1.654560897553947e6	5.590071908232983e21	0.4894832781819111	0.49775033419413556	0.19085787952239902	0.9996611733811491
0.013087219635209696	4.833422723275227e-27	1.654560897553947e6	5.590071908232983e21	0.4894832781819111	0.49775033419413556	0.19085787952239902	0.9996611733811491
0.013141503139872933	4.954346334228599e-27	1.654560897553947e6	5.590071908232983e21	0.4894832781819111	0.49775033419413556	0.19085787952239902	0.9996611733811491
0.013196011803046581	5.0777046422184366e-27	1.654560897553947e6	5.590071908232983e21	0.4894832781819111	0.49775033419413556	0.19085787952239902	0.9996611733811491
0.013250746558648878	5.203409452264337e-27	1.654560897553947e6	5.590071908232983e21	0.4894832781819111	0.49775033419413556	0.19085787952239902	0.9996611733811491
0.013305708344471786	5.331369957477102e-27	1.654560897553947e6	5.590071908232983e21	0.4894832781819111	0.49775033419413556	0.19085787952239902	0.9996611733811491
0.013360898102197068	5.4614926916981296e-27	1.654560897553947e6	5.590071908232983e21	0.4894832781819111	0.49775033419413556	0.19085787952239902	0.9996611733811491
0.013416316777412418	5.593681481415558e-27	1.654560897553947e6	5.590071908232983e21	0.4894832781819111	0.49775033419413556	0.19085787952239902	0.9996611733811491
0.01347196531962766	5.727837396947075e-27	1.654560897553947e6	5.590071908232983e21	0.4894832781819111	0.49775033419413556	0.19085787952239902	0.9996611733811491
0.013527844682291021	5.86385870287908e-27	1.654560897553947e6	5.590071908232983e21	0.4894832781819111	0.49775033419413556	0.19085787952239902	0.9996611733811491
0.01358395582280541	6.001640807751573e-27	1.654560897553947e6	5.590071908232983e21	0.4894832781819111	0.49775033419413556	0.19085787952239902	0.9996611733811491
0.013640299702545046	6.141076212979066e-27	1.654560897553947e6	5.590071908232983e21	0.4894832781819111	0.49775033419413556	0.19085787952239902	0.9996611733811491
0.013696877286871587	6.2820544609947094e-27	1.654560897553947e6	5.590071908232983e21	0.4894832781819111	0.49775033419413556	0.19085787952239902	0.9996611733811491
0.0137536895451509	6.424462082609498e-27	1.654560897553947e6	5.590071908232983e21	0.4894832781819111	0.49775033419413556	0.19085787952239902	0.9996611733811491
0.01381073745076962	6.568182543573568e-27	1.654560897553947e6	5.590071908232983e21	0.4894832781819111	0.49775033419413556	0.19085787952239902	0.9996611733811491
0.013868021981151809	6.713096190329049e-27	1.654560897553947e6	5.590071908232983e21	0.4894832781819111	0.49775033419413556	0.19085787952239902	0.9996611733811491
0.013925544117775723	6.859080194943331e-27	1.654560897553947e6	5.590071908232983e21	0.4894832781819111	0.49775033419413556	0.19085787952239902	0.9996611733811491
0.013983304846190613	7.006008499210947e-27	1.654560897553947e6	5.590071908232983e21	0.4894832781819111	0.49775033419413556	0.19085787952239902	0.9996611733811491
0.014041305156033619	7.153751757912746e-27	1.654560897553947e6	5.590071908232983e21	0.4894832781819111	0.49775033419413556	0.19085787952239902	0.9996611733811491
0.01409954604104672	7.302177281220358e-27	1.654560897553947e6	5.590071908232983e21	0.4894832781819111	0.49775033419413556	0.19085787952239902	0.9996611733811491
0.014158028499093712	7.45114897623407e-27	1.654560897553947e6	5.590071908232983e21	0.4894832781819111	0.49775033419413556	0.19085787952239902	0.9996611733811491
0.01421675353217752	7.600527287642722e-27	1.654560897553947e6	5.590071908232983e21	0.4894832781819111	0.49775033419413556	0.19085787952239902	0.9996611733811491
0.014275722146457039	7.750169137491372e-27	1.654560897553947e6	5.590071908232983e21	0.4894832781819111	0.49775033419413556	0.19085787952239902	0.9996611733811491
0.014334935352264587	7.899927864047003e-27	1.654560897553947e6	5.590071908232983e21	0.4894832781819111	0.49775033419413556	0.19085787952239902	0.9996611733811491
0.014394394164123166	8.049653159747753e-27	1.654560897553947e6	5.590071908232983e21	0.4894832781819111	0.49775033419413556	0.19085787952239902	0.9996611733811491
0.01445409960076384	8.199191008223626e-27	1.654560897553947e6	5.590071908232983e21	0.4894832781819111	0.49775033419413556	0.19085787952239902	0.9996611733811491
0.0145140526851432	8.348383620375707e-27	1.654560897553947e6	5.590071908232983e21	0.4894832781819111	0.49775033419413556	0.19085787952239902	0.9996611733811491
0.014574254444460871	8.497069369500647e-27	1.654560897553947e6	5.590071908232983e21	0.4894832781819111	0.49775033419413556	0.19085787952239902	0.9996611733811491
0.014634705910177135	8.645082725447458e-27	1.654560897553947e6	5.590071908232983e21	0.4894832781819111	0.49775033419413556	0.19085787952239902	0.9996611733811491
0.014695408118030578	8.79225418779278e-27	1.654560897553947e6	5.590071908232983e21	0.4894832781819111	0.49775033419413556	0.19085787952239902	0.9996611733811491
0.014756362108055799	8.938410218021195e-27	1.654560897553947e6	5.590071908232983e21	0.4894832781819111	0.49775033419413556	0.19085787952239902	0.9996611733811491
0.01481756892460146	9.083373170697448e-27	1.654560897553947e6	5.590071908232983e21	0.4894832781819111	0.49775033419413556	0.19085787952239902	0.9996611733811491
0.01487902961634781	9.226961223614486e-27	1.654560897553947e6	5.590071908232983e21	0.4894832781819111	0.49775033419413556	0.19085787952239902	0.9996611733811491
0.014940745236324908	9.371992241450548e-27	1.654560897553947e6	5.590071908232983e21	0.4894832781819111	0.49775033419413556	0.19085787952239902	0.9996611733811491
0.015002716841930597	9.522577576750184e-27	1.654560897553947e6	5.590071908232983e21	0.4894832781819111	0.49775033419413556	0.19085787952239902	0.9996611733811491
0.015064945494948622	9.678615080836074e-27	1.654560897553947e6	5.590071908232983e21	0.4894832781819111	0.49775033419413556	0.19085787952239902	0.9996611733811491
0.015127432261566818	9.83996692088871e-27	1.654560897553947e6	5.590071908232983e21	0.4894832781819111	0.49775033419413556	0.19085787952239902	0.9996611733811491
0.015190178212395388	1.0006490852346796e-26	1.654560897553947e6	5.590071908232983e21	0.4894832781819111	0.49775033419413556	0.19085787952239902	0.9996611733811491
0.01525318442248523	1.0178040137370338e-26	1.654560897553947e6	5.590071908232983e21	0.4894832781819111	0.49775033419413556	0.19085787952239902	0.9996611733811491
0.01531645197134631	1.03544634620484e-26	1.654560897553947e6	5.590071908232983e21	0.4894832781819111	0.49775033419413556	0.19085787952239902	0.9996611733811491
0.015379981942966404	1.0535604852334807e-26	1.654560897553947e6	5.590071908232983e21	0.4894832781819111	0.49775033419413556	0.19085787952239902	0.9996611733811491
0.015443775425829283	1.0721303588691216e-26	1.654560897553947e6	5.590071908232983e21	0.4894832781819111	0.49775033419413556	0.19085787952239902	0.9996611733811491
0.015507833512933628	1.0911394119422916e-26	1.654560897553947e6	5.590071908232983e21	0.4894832781819111	0.49775033419413556	0.19085787952239902	0.9996611733811491
0.015572157301811686	1.110570597268623e-26	1.654560897553947e6	5.590071908232983e21	0.4894832781819111	0.49775033419413556	0.19085787952239902	0.9996611733811491
0.015636747894548077	1.13040636671499e-26	1.654560897553947e6	5.590071908232983e21	0.4894832781819111	0.49775033419413556	0.19085787952239902	0.9996611733811491
0.015701606397798672	1.1506286621291294e-26	1.654560897553947e6	5.590071908232983e21	0.4894832781819111	0.49775033419413556	0.19085787952239902	0.9996611733811491
0.01576673392280957	1.1712189061308389e-26	1.654560897553947e6	5.590071908232983e21	0.4894832781819111	0.49775033419413556	0.19085787952239902	0.9996611733811491
0.015832131585436105	1.1921579927627751e-26	1.654560897553947e6	5.590071908232983e21	0.4894832781819111	0.49775033419413556	0.19085787952239902	0.9996611733811491
0.015897800506162	1.2134262779989273e-26	1.654560897553947e6	5.590071908232983e21	0.4894832781819111	0.49775033419413556	0.19085787952239902	0.9996611733811491
0.01596374181011848	1.2350035701086969e-26	1.654560897553947e6	5.590071908232983e21	0.4894832781819111	0.49775033419413556	0.19085787952239902	0.9996611733811491
0.01602995662710381	1.2568691198747268e-26	1.654560897553947e6	5.590071908232983e21	0.4894832781819111	0.49775033419413556	0.19085787952239902	0.9996611733811491
0.016096446091602275	1.2790016106620796e-26	1.654560897553947e6	5.590071908232983e21	0.4894832781819111	0.49775033419413556	0.19085787952239902	0.9996611733811491
0.01616321134280385	1.3013791483371234e-26	1.654560897553947e6	5.590071908232983e21	0.4894832781819111	0.49775033419413556	0.19085787952239902	0.9996611733811491
0.016230253524623695	1.3239792510337103e-26	1.654560897553947e6	5.590071908232983e21	0.4894832781819111	0.49775033419413556	0.19085787952239902	0.9996611733811491
0.01629757378572171	1.34677883876461e-26	1.654560897553947e6	5.590071908232983e21	0.4894832781819111	0.49775033419413556	0.19085787952239902	0.9996611733811491
0.01636517327952225	1.3697542228760412e-26	1.654560897553947e6	5.590071908232983e21	0.4894832781819111	0.49775033419413556	0.19085787952239902	0.9996611733811491
0.016433053164233862	1.392881095343087e-26	1.654560897553947e6	5.590071908232983e21	0.4894832781819111	0.49775033419413556	0.19085787952239902	0.9996611733811491
0.01650121460286915	1.4161345179037902e-26	1.654560897553947e6	5.590071908232983e21	0.4894832781819111	0.49775033419413556	0.19085787952239902	0.9996611733811491
0.016569658763264685	1.439488911029652e-26	1.654560897553947e6	5.590071908232983e21	0.4894832781819111	0.49775033419413556	0.19085787952239902	0.9996611733811491
