r[m]	M[Msun]	rho[g/cm^3]	P[N/m^2]	n_e[pm^-3]	n_p[pm^-3]	muF_e[MeV]	B
0.009999999999999995	-6.219332855863373e-41	2.7032572031677626e7	3.433098811112202e23	8.02872748129564	8.13055677652676	0.8139653449076727	0.998641610713926
0.010040398975525115	7.0107662281791775e-28	2.7032572031677626e7	3.433098811112202e23	8.02872748129564	8.13055677652676	0.8139653449076727	0.998641610713926
0.010080961158772625	1.4257767335648591e-27	2.7032572031677626e7	3.433098811112202e23	8.02872748129564	8.13055677652676	0.8139653449076727	0.998641610713926
0.010121687209084919	2.1720177573207694e-27	2.7032572031677626e7	3.433098811112202e23	8.02872748129564	8.13055677652676	0.8139653449076727	0.998641610713926
0.010162577788468193	2.937662520396255e-27	2.7032572031677626e7	3.433098811112202e23	8.02872748129564	8.13055677652676	0.8139653449076727	0.998641610713926
0.01020363356160308	3.720518308394057e-27	2.7032572031677626e7	3.433098811112202e23	8.02872748129564	8.13055677652676	0.8139653449076727	0.998641610713926
0.010244855195855329	4.5183359103964344e-27	2.7032572031677626e7	3.433098811112202e23	8.02872748129564	8.13055677652676	0.8139653449076727	0.998641610713926
0.010286243361286905	5.328808649098111e-27	2.7032572031677626e7	3.433098811112202e23	8.02872748129564	8.13055677652676	0.8139653449076727	0.998641610713926
0.010327798730666754	6.149571396677272e-27	2.7032572031677626e7	3.433098811112202e23	8.02872748129564	8.13055677652676	0.8139653449076727	0.998641610713926
0.010369521979481612	6.97819957621895e-27	2.7032572031677626e7	3.433098811112202e23	8.02872748129564	8.13055677652676	0.8139653449076727	0.998641610713926
0.01041141378594724	7.81220814850144e-27	2.7032572031677626e7	3.433098811112202e23	8.02872748129564	8.13055677652676	0.8139653449076727	0.998641610713926
0.01045347483101932	8.649050583931688e-27	2.7032572031677626e7	3.433098811112202e23	8.02872748129564	8.13055677652676	0.8139653449076727	0.998641610713926
0.010495705798404401	9.486117819435349e-27	2.7032572031677626e7	3.433098811112202e23	8.02872748129564	8.13055677652676	0.8139653449076727	0.998641610713926
0.01053810737457126	1.0320737200105374e-26	2.7032572031677626e7	3.433098811112202e23	8.02872748129564	8.13055677652676	0.8139653449076727	0.998641610713926
0.010580680248761942	1.1150171405386127e-26	2.7032572031677626e7	3.433098811112202e23	8.02872748129564	8.13055677652676	0.8139653449076727	0.998641610713926
0.010623425113002828	1.1975674499068209e-26	2.7032572031677626e7	3.433098811112202e23	8.02872748129564	8.13055677652676	0.8139653449076727	0.998641610713926
0.010666342662116144	1.2824501511162499e-26	2.7032572031677626e7	3.433098811112202e23	8.02872748129564	8.13055677652676	0.8139653449076727	0.998641610713926
0.010709433593731126	1.3700106461476325e-26	2.7032572031677626e7	3.433098811112202e23	8.02872748129564	8.13055677652676	0.8139653449076727	0.998641610713926
0.010752698608295228	1.4599808488731958e-26	2.7032572031677626e7	3.433098811112202e23	8.02872748129564	8.13055677652676	0.8139653449076727	0.998641610713926
0.010796138409085781	1.55208570814753e-26	2.7032572031677626e7	3.433098811112202e23	8.02872748129564	8.13055677652676	0.8139653449076727	0.998641610713926
0.010839753702221273	1.6460430879494495e-26	2.7032572031677626e7	3.433098811112202e23	8.02872748129564	8.13055677652676	0.8139653449076727	0.998641610713926
0.010883545196672709	1.7415636457605285e-26	2.7032572031677626e7	3.433098811112202e23	8.02872748129564	8.13055677652676	0.8139653449076727	0.998641610713926
0.0109275136042754	1.8383507091570195e-26	2.7032572031677626e7	3.433098811112202e23	8.02872748129564	8.13055677652676	0.8139653449076727	0.998641610713926
0.0109716596397404	1.936100150589165e-26	2.7032572031677626e7	3.433098811112202e23	8.02872748129564	8.13055677652676	0.8139653449076727	0.998641610713926
0.01101598402066598	2.0345002603241192e-26	2.7032572031677626e7	3.433098811112202e23	8.02872748129564	8.13055677652676	0.8139653449076727	0.998641610713926
0.01106048746754958	2.1332316175284282e-26	2.7032572031677626e7	3.433098811112202e23	8.02872748129564	8.13055677652676	0.8139653449076727	0.998641610713926
0.011105170703799369	2.2319669594629525e-26	2.7032572031677626e7	3.433098811112202e23	8.02872748129564	8.13055677652676	0.8139653449076727	0.998641610713926
0.011150034455745876	2.3303710487655443e-26	2.7032572031677626e7	3.433098811112202e23	8.02872748129564	8.13055677652676	0.8139653449076727	0.998641610713926
0.011195079452654069	2.4281005387964297e-26	2.7032572031677626e7	3.433098811112202e23	8.02872748129564	8.13055677652676	0.8139653449076727	0.998641610713926
0.01124030642673507	2.5260156412597198e-26	2.7032572031677626e7	3.433098811112202e23	8.02872748129564	8.13055677652676	0.8139653449076727	0.998641610713926
0.011285716113157922	2.6273070879805587e-26	2.7032572031677626e7	3.433098811112202e23	8.02872748129564	8.13055677652676	0.8139653449076727	0.998641610713926
0.011331309250061813	2.732034309245782e-26	2.7032572031677626e7	3.433098811112202e23	8.02872748129564	8.13055677652676	0.8139653449076727	0.998641610713926
0.011377086578567943	2.840044653228735e-26	2.7032572031677626e7	3.433098811112202e23	8.02872748129564	8.13055677652676	0.8139653449076727	0.998641610713926
0.011423048842791416	2.9511811784852406e-26	2.7032572031677626e7	3.433098811112202e23	8.02872748129564	8.13055677652676	0.8139653449076727	0.998641610713926
0.011469196789853633	3.065282578600232e-26	2.7032572031677626e7	3.433098811112202e23	8.02872748129564	8.13055677652676	0.8139653449076727	0.998641610713926
0.01151553116989429	3.1821831057148734e-26	2.7032572031677626e7	3.433098811112202e23	8.02872748129564	8.13055677652676	0.8139653449076727	0.998641610713926
0.011562052736083421	3.301712492919919e-26	2.7032572031677626e7	3.433098811112202e23	8.02872748129564	8.13055677652676	0.8139653449076727	0.998641610713926
0.01160876224463394	3.4236958755010184e-26	2.7032572031677626e7	3.433098811112202e23	8.02872748129564	8.13055677652676	0.8139653449076727	0.998641610713926
0.011655660454813779	3.547953711017942e-26	2.7032572031677626e7	3.433098811112202e23	8.02872748129564	8.13055677652676	0.8139653449076727	0.998641610713926
0.011702748128958091	3.674301698202989e-26	2.7032572031677626e7	3.433098811112202e23	8.02872748129564	8.13055677652676	0.8139653449076727	0.998641610713926
0.011750026032481932	3.8025506946635854e-26	2.7032572031677626e7	3.433098811112202e23	8.02872748129564	8.13055677652676	0.8139653449076727	0.998641610713926
0.011797494933892557	3.9325066333705154e-26	2.7032572031677626e7	3.433098811112202e23	8.02872748129564	8.13055677652676	0.8139653449076727	0.998641610713926
0.011845155604801764	4.0639704379162893e-26	2.7032572031677626e7	3.433098811112202e23	8.02872748129564	8.13055677652676	0.8139653449076727	0.998641610713926
0.011893008819938726	4.196737936528168e-26	2.7032572031677626e7	3.433098811112202e23	8.02872748129564	8.13055677652676	0.8139653449076727	0.998641610713926
0.011941055357162448	4.330599774816478e-26	2.7032572031677626e7	3.433098811112202e23	8.02872748129564	8.13055677652676	0.8139653449076727	0.998641610713926
0.011989295997474262	4.465341327242251e-26	2.7032572031677626e7	3.433098811112202e23	8.02872748129564	8.13055677652676	0.8139653449076727	0.998641610713926
0.012037731525030798	4.600742607287797e-26	2.7032572031677626e7	3.433098811112202e23	8.02872748129564	8.13055677652676	0.8139653449076727	0.998641610713926
0.012086362727156616	4.7365781763105187e-26	2.7032572031677626e7	3.433098811112202e23	8.02872748129564	8.13055677652676	0.8139653449076727	0.998641610713926
0.012135190394356829	4.872617051062846e-26	2.7032572031677626e7	3.433098811112202e23	8.02872748129564	8.13055677652676	0.8139653449076727	0.998641610713926
0.012184215320330259	5.008622609861798e-26	2.7032572031677626e7	3.433098811112202e23	8.02872748129564	8.13055677652676	0.8139653449076727	0.998641610713926
0.012233438301982192	5.144352497387151e-26	2.7032572031677626e7	3.433098811112202e23	8.02872748129564	8.13055677652676	0.8139653449076727	0.998641610713926
0.012282860139437175	5.279558528090949e-26	2.7032572031677626e7	3.433098811112202e23	8.02872748129564	8.13055677652676	0.8139653449076727	0.998641610713926
0.012332481636052333	5.413986588200753e-26	2.7032572031677626e7	3.433098811112202e23	8.02872748129564	8.13055677652676	0.8139653449076727	0.998641610713926
0.012382303598430273	5.547376536295092e-26	2.7032572031677626e7	3.433098811112202e23	8.02872748129564	8.13055677652676	0.8139653449076727	0.998641610713926
0.012432326836432032	5.679775647840833e-26	2.7032572031677626e7	3.433098811112202e23	8.02872748129564	8.13055677652676	0.8139653449076727	0.998641610713926
0.012482552163190563	5.81555951530997e-26	2.7032572031677626e7	3.433098811112202e23	8.02872748129564	8.13055677652676	0.8139653449076727	0.998641610713926
0.012532980395123792	5.95603786305913e-26	2.7032572031677626e7	3.433098811112202e23	8.02872748129564	8.13055677652676	0.8139653449076727	0.998641610713926
0.012583612351947732	6.100978294356188e-26	2.7032572031677626e7	3.433098811112202e23	8.02872748129564	8.13055677652676	0.8139653449076727	0.998641610713926
0.012634448856690128	6.250141971347391e-26	2.7032572031677626e7	3.433098811112202e23	8.02872748129564	8.13055677652676	0.8139653449076727	0.998641610713926
0.01268549073570366	6.403283502296977e-26	2.7032572031677626e7	3.433098811112202e23	8.02872748129564	8.13055677652676	0.8139653449076727	0.998641610713926
0.012736738818679243	6.560150827155641e-26	2.7032572031677626e7	3.433098811112202e23	8.02872748129564	8.13055677652676	0.8139653449076727	0.998641610713926
0.01278819393865981	6.720485101436274e-26	2.7032572031677626e7	3.433098811112202e23	8.02872748129564	8.13055677652676	0.8139653449076727	0.998641610713926
0.012839856932053704	6.884020578371197e-26	2.7032572031677626e7	3.433098811112202e23	8.02872748129564	8.13055677652676	0.8139653449076727	0.998641610713926
0.01289172863864811	7.050484489328664e-26	2.7032572031677626e7	3.433098811112202e23	8.02872748129564	8.13055677652676	0.8139653449076727	0.998641610713926
0.012943809901623034	7.21959692246657e-26	2.7032572031677626e7	3.433098811112202e23	8.02872748129564	8.13055677652676	0.8139653449076727	0.998641610713926
0.012996101567564835	7.391070699596176e-26	2.7032572031677626e7	3.433098811112202e23	8.02872748129564	8.13055677652676	0.8139653449076727	0.998641610713926
0.013048604486479837	7.564611251233009e-26	2.7032572031677626e7	3.433098811112202e23	8.02872748129564	8.13055677652676	0.8139653449076727	0.998641610713926
0.013101319511808466	7.739916489811901e-26	2.7032572031677626e7	3.433098811112202e23	8.02872748129564	8.13055677652676	0.8139653449076727	0.998641610713926
0.013154247500438952	7.916676681037859e-26	2.7032572031677626e7	3.433098811112202e23	8.02872748129564	8.13055677652676	0.8139653449076727	0.998641610713926
0.013207389312721113	8.094574313349159e-26	2.7032572031677626e7	3.433098811112202e23	8.02872748129564	8.13055677652676	0.8139653449076727	0.998641610713926
0.013260745812480648	8.273283965468496e-26	2.7032572031677626e7	3.433098811112202e23	8.02872748129564	8.13055677652676	0.8139653449076727	0.998641610713926
0.013314317867033026	8.452472172013009e-26	2.7032572031677626e7	3.433098811112202e23	8.02872748129564	8.13055677652676	0.8139653449076727	0.998641610713926
0.01336810634719742	8.631797287138444e-26	2.7032572031677626e7	3.433098811112202e23	8.02872748129564	8.13055677652676	0.8139653449076727	0.998641610713926
0.013422112127311184	8.810909346192435e-26	2.7032572031677626e7	3.433098811112202e23	8.02872748129564	8.13055677652676	0.8139653449076727	0.998641610713926
0.013476336085243904	8.989449925346478e-26	2.7032572031677626e7	3.433098811112202e23	8.02872748129564	8.13055677652676	0.8139653449076727	0.998641610713926
0.013530779102411511	9.167051999181089e-26	2.7032572031677626e7	3.433098811112202e23	8.02872748129564	8.13055677652676	0.8139653449076727	0.998641610713926
0.013585442063790924	9.343339796197734e-26	2.7032572031677626e7	3.433098811112202e23	8.02872748129564	8.13055677652676	0.8139653449076727	0.998641610713926
0.013640325857934283	9.518110272372378e-26	2.7032572031677626e7	3.433098811112202e23	8.02872748129564	8.13055677652676	0.8139653449076727	0.998641610713926
0.013695431376983218	9.694411302790795e-26	2.7032572031677626e7	3.433098811112202e23	8.02872748129564	8.13055677652676	0.8139653449076727	0.998641610713926
0.013750759516683688	9.873476906242036e-26	2.7032572031677626e7	3.433098811112202e23	8.02872748129564	8.13055677652676	0.8139653449076727	0.998641610713926
0.013806311176400377	1.0055334867259524e-25	2.7032572031677626e7	3.433098811112202e23	8.02872748129564	8.13055677652676	0.8139653449076727	0.998641610713926
0.013862087259131135	1.0240013217147406e-25	2.7032572031677626e7	3.433098811112202e23	8.02872748129564	8.13055677652676	0.8139653449076727	0.998641610713926
0.013918088671522008	1.042754023606767e-25	2.7032572031677626e7	3.433098811112202e23	8.02872748129564	8.13055677652676	0.8139653449076727	0.998641610713926
0.013974316323881792	1.0617944455142978e-25	2.7032572031677626e7	3.433098811112202e23	8.02872748129564	8.13055677652676	0.8139653449076727	0.998641610713926
0.01403077113019667	1.0811254658576637e-25	2.7032572031677626e7	3.433098811112202e23	8.02872748129564	8.13055677652676	0.8139653449076727	0.998641610713926
0.014087454008145409	1.100749988579214e-25	2.7032572031677626e7	3.433098811112202e23	8.02872748129564	8.13055677652676	0.8139653449076727	0.998641610713926
0.0141443658791141	1.120670943358835e-25	2.7032572031677626e7	3.433098811112202e23	8.02872748129564	8.13055677652676	0.8139653449076727	0.998641610713926
0.014201507668210966	1.1408912858312622e-25	2.7032572031677626e7	3.433098811112202e23	8.02872748129564	8.13055677652676	0.8139653449076727	0.998641610713926
0.014258880304281752	1.161413997805376e-25	2.7032572031677626e7	3.433098811112202e23	8.02872748129564	8.13055677652676	0.8139653449076727	0.998641610713926
0.01431648471992464	1.182242087485105e-25	2.7032572031677626e7	3.433098811112202e23	8.02872748129564	8.13055677652676	0.8139653449076727	0.998641610713926
0.014374321851505239	1.2033785896921816e-25	2.7032572031677626e7	3.433098811112202e23	8.02872748129564	8.13055677652676	0.8139653449076727	0.998641610713926
0.014432392639172155	1.224826566090899e-25	2.7032572031677626e7	3.433098811112202e23	8.02872748129564	8.13055677652676	0.8139653449076727	0.998641610713926
0.0144906980268721	1.2465891054145592e-25	2.7032572031677626e7	3.433098811112202e23	8.02872748129564	8.13055677652676	0.8139653449076727	0.998641610713926
0.014549238962365051	1.2686693236937656e-25	2.7032572031677626e7	3.433098811112202e23	8.02872748129564	8.13055677652676	0.8139653449076727	0.998641610713926
0.014608016397240022	1.2910703644868181e-25	2.7032572031677626e7	3.433098811112202e23	8.02872748129564	8.13055677652676	0.8139653449076727	0.998641610713926
0.014667031286930346	1.3137953991118077e-25	2.7032572031677626e7	3.433098811112202e23	8.02872748129564	8.13055677652676	0.8139653449076727	0.998641610713926
0.014726284590729034	1.3368476268806209e-25	2.7032572031677626e7	3.433098811112202e23	8.02872748129564	8.13055677652676	0.8139653449076727	0.998641610713926
0.014785777271804714	1.3602302753350794e-25	2.7032572031677626e7	3.433098811112202e23	8.02872748129564	8.13055677652676	0.8139653449076727	0.998641610713926
0.014845510297217127	1.3839466004848402e-25	2.7032572031677626e7	3.433098811112202e23	8.02872748129564	8.13055677652676	0.8139653449076727	0.998641610713926
0.014905484637932646	1.407999887047228e-25	2.7032572031677626e7	3.433098811112202e23	8.02872748129564	8.13055677652676	0.8139653449076727	0.998641610713926
0.014965701268840436	1.432393448689301e-25	2.7032572031677626e7	3.433098811112202e23	8.02872748129564	8.13055677652676	0.8139653449076727	0.998641610713926
0.015026161168768112	1.4571306282716614e-25	2.7032572031677626e7	3.433098811112202e23	8.02872748129564	8.13055677652676	0.8139653449076727	0.998641610713926
0.01508686532049747	1.4822147980942983e-25	2.7032572031677626e7	3.433098811112202e23	8.02872748129564	8.13055677652676	0.8139653449076727	0.998641610713926
0.015147814710780827	1.5076493601446786e-25	2.7032572031677626e7	3.433098811112202e23	8.02872748129564	8.13055677652676	0.8139653449076727	0.998641610713926
0.015209010330356876	1.5334377463476563e-25	2.7032572031677626e7	3.433098811112202e23	8.02872748129564	8.13055677652676	0.8139653449076727	0.998641610713926
0.015270453173966615	1.5595834188174542e-25	2.7032572031677626e7	3.433098811112202e23	8.02872748129564	8.13055677652676	0.8139653449076727	0.998641610713926
0.015332144240369872	1.586089870111937e-25	2.7032572031677626e7	3.433098811112202e23	8.02872748129564	8.13055677652676	0.8139653449076727	0.998641610713926
0.015394084532361367	1.6129606234887673e-25	2.7032572031677626e7	3.433098811112202e23	8.02872748129564	8.13055677652676	0.8139653449076727	0.998641610713926
0.015456275056786819	1.6401992331636623e-25	2.7032572031677626e7	3.433098811112202e23	8.02872748129564	8.13055677652676	0.8139653449076727	0.998641610713926
0.015518716824559681	1.6678092845710273e-25	2.7032572031677626e7	3.433098811112202e23	8.02872748129564	8.13055677652676	0.8139653449076727	0.998641610713926
0.01558141085067741	1.6957943946265014e-25	2.7032572031677626e7	3.433098811112202e23	8.02872748129564	8.13055677652676	0.8139653449076727	0.998641610713926
0.015644358154237748	1.7241582119916478e-25	2.7032572031677626e7	3.433098811112202e23	8.02872748129564	8.13055677652676	0.8139653449076727	0.998641610713926
0.015707559758455676	1.7529044173410986e-25	2.7032572031677626e7	3.433098811112202e23	8.02872748129564	8.13055677652676	0.8139653449076727	0.998641610713926
0.01577101669067986	1.7820367236316426e-25	2.7032572031677626e7	3.433098811112202e23	8.02872748129564	8.13055677652676	0.8139653449076727	0.998641610713926
0.015834729982409163	1.8115588763735296e-25	2.7032572031677626e7	3.433098811112202e23	8.02872748129564	8.13055677652676	0.8139653449076727	0.998641610713926
0.015898700669309786	1.8414746539042706e-25	2.7032572031677626e7	3.433098811112202e23	8.02872748129564	8.13055677652676	0.8139653449076727	0.998641610713926
0.015962929791231917	1.8717878676644376e-25	2.7032572031677626e7	3.433098811112202e23	8.02872748129564	8.13055677652676	0.8139653449076727	0.998641610713926
0.016027418392226437	1.9025023624757276e-25	2.7032572031677626e7	3.433098811112202e23	8.02872748129564	8.13055677652676	0.8139653449076727	0.998641610713926
0.01609216752056228	1.9336220168216041e-25	2.7032572031677626e7	3.433098811112202e23	8.02872748129564	8.13055677652676	0.8139653449076727	0.998641610713926
0.01615717822874328	1.9651507431299689e-25	2.7032572031677626e7	3.433098811112202e23	8.02872748129564	8.13055677652676	0.8139653449076727	0.998641610713926
0.016222451573525077	1.997092488058151e-25	2.7032572031677626e7	3.433098811112202e23	8.02872748129564	8.13055677652676	0.8139653449076727	0.998641610713926
0.016287988615932707	2.0294512327805615e-25	2.7032572031677626e7	3.433098811112202e23	8.02872748129564	8.13055677652676	0.8139653449076727	0.998641610713926
0.016353790421277624	2.0622309932783873e-25	2.7032572031677626e7	3.433098811112202e23	8.02872748129564	8.13055677652676	0.8139653449076727	0.998641610713926
0.016419858059174838	2.095435820631717e-25	2.7032572031677626e7	3.433098811112202e23	8.02872748129564	8.13055677652676	0.8139653449076727	0.998641610713926
0.01648619260356069	2.1290698013143303e-25	2.7032572031677626e7	3.433098811112202e23	8.02872748129564	8.13055677652676	0.8139653449076727	0.998641610713926
0.016552795132710126	2.1631370574906463e-25	2.7032572031677626e7	3.433098811112202e23	8.02872748129564	8.13055677652676	0.8139653449076727	0.998641610713926
0.016619666729253996	2.1976417473150982e-25	2.7032572031677626e7	3.433098811112202e23	8.02872748129564	8.13055677652676	0.8139653449076727	0.998641610713926
