r[m]	M[Msun]	rho[g/cm^3]	P[N/m^2]	n_e[pm^-3]	n_p[pm^-3]	muF_e[MeV]	B
0.010000000000000004	7.127019272665054e-40	2.0742518074181175e8	5.713789067966044e24	61.617002195403494	62.35939686834256	1.953875993583159	0.9969347705713067
0.010039486229844517	5.254899281884697e-27	2.0742518074181175e8	5.713789067966044e24	61.617002195403494	62.35939686834256	1.953875993583159	0.9969347705713067
0.01007912837592372	1.0678049523224617e-26	2.0742518074181175e8	5.713789067966044e24	61.617002195403494	62.35939686834256	1.953875993583159	0.9969347705713067
0.010118927053892125	1.6250196638898845e-26	2.0742518074181175e8	5.713789067966044e24	61.617002195403494	62.35939686834256	1.953875993583159	0.9969347705713067
0.010158882881835068	2.1951602140405774e-26	2.0742518074181175e8	5.713789067966044e24	61.617002195403494	62.35939686834256	1.953875993583159	0.9969347705713067
0.010198996480278628	2.776203500949533e-26	2.0742518074181175e8	5.713789067966044e24	61.617002195403494	62.35939686834256	1.953875993583159	0.9969347705713067
0.01023926847219895	3.3660763454988286e-26	2.0742518074181175e8	5.713789067966044e24	61.617002195403494	62.35939686834256	1.953875993583159	0.9969347705713067
0.01027969948303224	3.962654655141046e-26	2.0742518074181175e8	5.713789067966044e24	61.617002195403494	62.35939686834256	1.953875993583159	0.9969347705713067
0.010320290140684191	4.563762575768896e-26	2.0742518074181175e8	5.713789067966044e24	61.617002195403494	62.35939686834256	1.953875993583159	0.9969347705713067
0.010361041075539859	5.1671716314473456e-26	2.0742518074181175e8	5.713789067966044e24	61.617002195403494	62.35939686834256	1.953875993583159	0.9969347705713067
0.010401952920473578	5.770599851839924e-26	2.0742518074181175e8	5.713789067966044e24	61.617002195403494	62.35939686834256	1.953875993583159	0.9969347705713067
0.010443026310858495	6.371710887160509e-26	2.0742518074181175e8	5.713789067966044e24	61.617002195403494	62.35939686834256	1.953875993583159	0.9969347705713067
0.01048426188457678	6.968382259224667e-26	2.0742518074181175e8	5.713789067966044e24	61.617002195403494	62.35939686834256	1.953875993583159	0.9969347705713067
0.010525660282029182	7.575742908864212e-26	2.0742518074181175e8	5.713789067966044e24	61.617002195403494	62.35939686834256	1.953875993583159	0.9969347705713067
0.010567222146145326	8.202010886016907e-26	2.0742518074181175e8	5.713789067966044e24	61.617002195403494	62.35939686834256	1.953875993583159	0.9969347705713067
0.010608948122393397	8.844847947605071e-26	2.0742518074181175e8	5.713789067966044e24	61.617002195403494	62.35939686834256	1.953875993583159	0.9969347705713067
0.010650838858790285	9.501857275307604e-26	2.0742518074181175e8	5.713789067966044e24	61.617002195403494	62.35939686834256	1.953875993583159	0.9969347705713067
0.01069289500591179	1.0170582494084062e-25	2.0742518074181175e8	5.713789067966044e24	61.617002195403494	62.35939686834256	1.953875993583159	0.9969347705713067
0.010735117216902412	1.0848506676601048e-25	2.0742518074181175e8	5.713789067966044e24	61.617002195403494	62.35939686834256	1.953875993583159	0.9969347705713067
0.010777506147485849	1.1533051333392153e-25	2.0742518074181175e8	5.713789067966044e24	61.617002195403494	62.35939686834256	1.953875993583159	0.9969347705713067
0.010820062455974831	1.2221575388539478e-25	2.0742518074181175e8	5.713789067966044e24	61.617002195403494	62.35939686834256	1.953875993583159	0.9969347705713067
0.01086278680328169	1.291137414070735e-25	2.0742518074181175e8	5.713789067966044e24	61.617002195403494	62.35939686834256	1.953875993583159	0.9969347705713067
0.010905679852928275	1.3599678209310623e-25	2.0742518074181175e8	5.713789067966044e24	61.617002195403494	62.35939686834256	1.953875993583159	0.9969347705713067
0.010948742271056614	1.428365246564396e-25	2.0742518074181175e8	5.713789067966044e24	61.617002195403494	62.35939686834256	1.953875993583159	0.9969347705713067
0.010991974726438938	1.4971196731392302e-25	2.0742518074181175e8	5.713789067966044e24	61.617002195403494	62.35939686834256	1.953875993583159	0.9969347705713067
0.011035377890488217	1.5682143353213222e-25	2.0742518074181175e8	5.713789067966044e24	61.617002195403494	62.35939686834256	1.953875993583159	0.9969347705713067
0.011078952437268702	1.6415828896851157e-25	2.0742518074181175e8	5.713789067966044e24	61.617002195403494	62.35939686834256	1.953875993583159	0.9969347705713067
0.011122699043506096	1.7170937083111626e-25	2.0742518074181175e8	5.713789067966044e24	61.617002195403494	62.35939686834256	1.953875993583159	0.9969347705713067
0.011166618388598419	1.7946116711730067e-25	2.0742518074181175e8	5.713789067966044e24	61.617002195403494	62.35939686834256	1.953875993583159	0.9969347705713067
0.011210711154626185	1.8739981067101594e-25	2.0742518074181175e8	5.713789067966044e24	61.617002195403494	62.35939686834256	1.953875993583159	0.9969347705713067
0.011254978026363386	1.9551107315435827e-25	2.0742518074181175e8	5.713789067966044e24	61.617002195403494	62.35939686834256	1.953875993583159	0.9969347705713067
0.011299419691287777	2.0378035893195933e-25	2.0742518074181175e8	5.713789067966044e24	61.617002195403494	62.35939686834256	1.953875993583159	0.9969347705713067
0.011344036839591709	2.121926988672801e-25	2.0742518074181175e8	5.713789067966044e24	61.617002195403494	62.35939686834256	1.953875993583159	0.9969347705713067
0.011388830164192981	2.207327440295383e-25	2.0742518074181175e8	5.713789067966044e24	61.617002195403494	62.35939686834256	1.953875993583159	0.9969347705713067
0.011433800360745275	2.2938475930999826e-25	2.0742518074181175e8	5.713789067966044e24	61.617002195403494	62.35939686834256	1.953875993583159	0.9969347705713067
0.01147894812764934	2.3813261694663326e-25	2.0742518074181175e8	5.713789067966044e24	61.617002195403494	62.35939686834256	1.953875993583159	0.9969347705713067
0.01152427416606345	2.4695978995566516e-25	2.0742518074181175e8	5.713789067966044e24	61.617002195403494	62.35939686834256	1.953875993583159	0.9969347705713067
0.011569779179914686	2.5584934546903545e-25	2.0742518074181175e8	5.713789067966044e24	61.617002195403494	62.35939686834256	1.953875993583159	0.9969347705713067
0.011615463875909521	2.647839379762683e-25	2.0742518074181175e8	5.713789067966044e24	61.617002195403494	62.35939686834256	1.953875993583159	0.9969347705713067
0.011661328963544952	2.7374580246969506e-25	2.0742518074181175e8	5.713789067966044e24	61.617002195403494	62.35939686834256	1.953875993583159	0.9969347705713067
0.01170737515511965	2.8271674749165137e-25	2.0742518074181175e8	5.713789067966044e24	61.617002195403494	62.35939686834256	1.953875993583159	0.9969347705713067
0.0117536031657447	2.916781480822692e-25	2.0742518074181175e8	5.713789067966044e24	61.617002195403494	62.35939686834256	1.953875993583159	0.9969347705713067
0.011800013713355076	3.006109386267643e-25	2.0742518074181175e8	5.713789067966044e24	61.617002195403494	62.35939686834256	1.953875993583159	0.9969347705713067
0.011846607518720421	3.094956056006076e-25	2.0742518074181175e8	5.713789067966044e24	61.617002195403494	62.35939686834256	1.953875993583159	0.9969347705713067
0.01189338530545661	3.1831218021151786e-25	2.0742518074181175e8	5.713789067966044e24	61.617002195403494	62.35939686834256	1.953875993583159	0.9969347705713067
0.011940347800036671	3.271047451266762e-25	2.0742518074181175e8	5.713789067966044e24	61.617002195403494	62.35939686834256	1.953875993583159	0.9969347705713067
0.011987495731802187	3.3616687287728246e-25	2.0742518074181175e8	5.713789067966044e24	61.617002195403494	62.35939686834256	1.953875993583159	0.9969347705713067
0.01203482983297479	3.455219446421188e-25	2.0742518074181175e8	5.713789067966044e24	61.617002195403494	62.35939686834256	1.953875993583159	0.9969347705713067
0.012082350838667183	3.551514296078847e-25	2.0742518074181175e8	5.713789067966044e24	61.617002195403494	62.35939686834256	1.953875993583159	0.9969347705713067
0.012130059486894948	3.650363096675713e-25	2.0742518074181175e8	5.713789067966044e24	61.617002195403494	62.35939686834256	1.953875993583159	0.9969347705713067
0.012177956518587609	3.751570711470172e-25	2.0742518074181175e8	5.713789067966044e24	61.617002195403494	62.35939686834256	1.953875993583159	0.9969347705713067
0.012226042677600552	3.8549369641218336e-25	2.0742518074181175e8	5.713789067966044e24	61.617002195403494	62.35939686834256	1.953875993583159	0.9969347705713067
0.012274318710726205	3.9602565535522175e-25	2.0742518074181175e8	5.713789067966044e24	61.617002195403494	62.35939686834256	1.953875993583159	0.9969347705713067
0.012322785367705808	4.0673189675800647e-25	2.0742518074181175e8	5.713789067966044e24	61.617002195403494	62.35939686834256	1.953875993583159	0.9969347705713067
0.012371443401241189	4.175908395313707e-25	2.0742518074181175e8	5.713789067966044e24	61.617002195403494	62.35939686834256	1.953875993583159	0.9969347705713067
0.012420293567006115	4.285803638282999e-25	2.0742518074181175e8	5.713789067966044e24	61.617002195403494	62.35939686834256	1.953875993583159	0.9969347705713067
0.012469336623658426	4.396778020296669e-25	2.0742518074181175e8	5.713789067966044e24	61.617002195403494	62.35939686834256	1.953875993583159	0.9969347705713067
0.01251857333285141	4.508599296004754e-25	2.0742518074181175e8	5.713789067966044e24	61.617002195403494	62.35939686834256	1.953875993583159	0.9969347705713067
0.012568004459246043	4.62102955815257e-25	2.0742518074181175e8	5.713789067966044e24	61.617002195403494	62.35939686834256	1.953875993583159	0.9969347705713067
0.012617630770522506	4.733825143505127e-25	2.0742518074181175e8	5.713789067966044e24	61.617002195403494	62.35939686834256	1.953875993583159	0.9969347705713067
0.012667453037392258	4.846736537427411e-25	2.0742518074181175e8	5.713789067966044e24	61.617002195403494	62.35939686834256	1.953875993583159	0.9969347705713067
0.01271747203361016	4.9595082771014415e-25	2.0742518074181175e8	5.713789067966044e24	61.617002195403494	62.35939686834256	1.953875993583159	0.9969347705713067
0.012767688535986135	5.071878853360819e-25	2.0742518074181175e8	5.713789067966044e24	61.617002195403494	62.35939686834256	1.953875993583159	0.9969347705713067
0.012818103324397643	5.183580611127492e-25	2.0742518074181175e8	5.713789067966044e24	61.617002195403494	62.35939686834256	1.953875993583159	0.9969347705713067
0.012868717181801376	5.2943396484284455e-25	2.0742518074181175e8	5.713789067966044e24	61.617002195403494	62.35939686834256	1.953875993583159	0.9969347705713067
0.012919530894245837	5.405201770193704e-25	2.0742518074181175e8	5.713789067966044e24	61.617002195403494	62.35939686834256	1.953875993583159	0.9969347705713067
0.01297054525088313	5.517699646631333e-25	2.0742518074181175e8	5.713789067966044e24	61.617002195403494	62.35939686834256	1.953875993583159	0.9969347705713067
0.01302176104398163	5.631853276445309e-25	2.0742518074181175e8	5.713789067966044e24	61.617002195403494	62.35939686834256	1.953875993583159	0.9969347705713067
0.013073179068937927	5.7476787843139015e-25	2.0742518074181175e8	5.713789067966044e24	61.617002195403494	62.35939686834256	1.953875993583159	0.9969347705713067
0.013124800124289328	5.8651924344438405e-25	2.0742518074181175e8	5.713789067966044e24	61.617002195403494	62.35939686834256	1.953875993583159	0.9969347705713067
0.013176625011726423	5.984410631722007e-25	2.0742518074181175e8	5.713789067966044e24	61.617002195403494	62.35939686834256	1.953875993583159	0.9969347705713067
0.013228654536105165	6.105349922875004e-25	2.0742518074181175e8	5.713789067966044e24	61.617002195403494	62.35939686834256	1.953875993583159	0.9969347705713067
0.013280889505459793	6.22802699764001e-25	2.0742518074181175e8	5.713789067966044e24	61.617002195403494	62.35939686834256	1.953875993583159	0.9969347705713067
0.013333330731014953	6.352458689943119e-25	2.0742518074181175e8	5.713789067966044e24	61.617002195403494	62.35939686834256	1.953875993583159	0.9969347705713067
0.013385979027198727	6.478661979089171e-25	2.0742518074181175e8	5.713789067966044e24	61.617002195403494	62.35939686834256	1.953875993583159	0.9969347705713067
0.013438835211654905	6.606653990959233e-25	2.0742518074181175e8	5.713789067966044e24	61.617002195403494	62.35939686834256	1.953875993583159	0.9969347705713067
0.013491900105255843	6.736451999219196e-25	2.0742518074181175e8	5.713789067966044e24	61.617002195403494	62.35939686834256	1.953875993583159	0.9969347705713067
0.013545174532115373	6.8680734265378745e-25	2.0742518074181175e8	5.713789067966044e24	61.617002195403494	62.35939686834256	1.953875993583159	0.9969347705713067
0.01359865931960123	7.001535845813882e-25	2.0742518074181175e8	5.713789067966044e24	61.617002195403494	62.35939686834256	1.953875993583159	0.9969347705713067
0.013652355298348328	7.136856981414193e-25	2.0742518074181175e8	5.713789067966044e24	61.617002195403494	62.35939686834256	1.953875993583159	0.9969347705713067
0.013706263302271222	7.274054710420696e-25	2.0742518074181175e8	5.713789067966044e24	61.617002195403494	62.35939686834256	1.953875993583159	0.9969347705713067
0.01376038416857751	7.413147063888899e-25	2.0742518074181175e8	5.713789067966044e24	61.617002195403494	62.35939686834256	1.953875993583159	0.9969347705713067
0.013814718737780434	7.554152228114699e-25	2.0742518074181175e8	5.713789067966044e24	61.617002195403494	62.35939686834256	1.953875993583159	0.9969347705713067
0.013869267853712104	7.6970885459128425e-25	2.0742518074181175e8	5.713789067966044e24	61.617002195403494	62.35939686834256	1.953875993583159	0.9969347705713067
0.01392403236353678	7.841974517905721e-25	2.0742518074181175e8	5.713789067966044e24	61.617002195403494	62.35939686834256	1.953875993583159	0.9969347705713067
0.013979013117763624	7.98882880382093e-25	2.0742518074181175e8	5.713789067966044e24	61.617002195403494	62.35939686834256	1.953875993583159	0.9969347705713067
0.01403421097026037	8.13767022380179e-25	2.0742518074181175e8	5.713789067966044e24	61.617002195403494	62.35939686834256	1.953875993583159	0.9969347705713067
0.01408962677826612	8.28851775972576e-25	2.0742518074181175e8	5.713789067966044e24	61.617002195403494	62.35939686834256	1.953875993583159	0.9969347705713067
0.014145261402405119	8.44139055653605e-25	2.0742518074181175e8	5.713789067966044e24	61.617002195403494	62.35939686834256	1.953875993583159	0.9969347705713067
0.014201115706699725	8.596307923581726e-25	2.0742518074181175e8	5.713789067966044e24	61.617002195403494	62.35939686834256	1.953875993583159	0.9969347705713067
0.014257190558583993	8.753289335970018e-25	2.0742518074181175e8	5.713789067966044e24	61.617002195403494	62.35939686834256	1.953875993583159	0.9969347705713067
0.014313486828917314	8.912354435929621e-25	2.0742518074181175e8	5.713789067966044e24	61.617002195403494	62.35939686834256	1.953875993583159	0.9969347705713067
0.014370005391997558	9.073523034183431e-25	2.0742518074181175e8	5.713789067966044e24	61.617002195403494	62.35939686834256	1.953875993583159	0.9969347705713067
0.014426747125575085	9.236815111334662e-25	2.0742518074181175e8	5.713789067966044e24	61.617002195403494	62.35939686834256	1.953875993583159	0.9969347705713067
0.014483712910865936	9.402250819261569e-25	2.0742518074181175e8	5.713789067966044e24	61.617002195403494	62.35939686834256	1.953875993583159	0.9969347705713067
0.014540903632565974	9.56985048252615e-25	2.0742518074181175e8	5.713789067966044e24	61.617002195403494	62.35939686834256	1.953875993583159	0.9969347705713067
0.014598320178864211	9.739634599791465e-25	2.0742518074181175e8	5.713789067966044e24	61.617002195403494	62.35939686834256	1.953875993583159	0.9969347705713067
0.014655963441456792	9.91162384525234e-25	2.0742518074181175e8	5.713789067966044e24	61.617002195403494	62.35939686834256	1.953875993583159	0.9969347705713067
0.014713834315561003	1.0085839070077394e-24	2.0742518074181175e8	5.713789067966044e24	61.617002195403494	62.35939686834256	1.953875993583159	0.9969347705713067
0.014771933699928772	1.0262301303861016e-24	2.0742518074181175e8	5.713789067966044e24	61.617002195403494	62.35939686834256	1.953875993583159	0.9969347705713067
0.014830262496861101	1.044103175608977e-24	2.0742518074181175e8	5.713789067966044e24	61.617002195403494	62.35939686834256	1.953875993583159	0.9969347705713067
0.014888821612221588	1.062205181761753e-24	2.0742518074181175e8	5.713789067966044e24	61.617002195403494	62.35939686834256	1.953875993583159	0.9969347705713067
0.014947611955450999	1.080538306215567e-24	2.0742518074181175e8	5.713789067966044e24	61.617002195403494	62.35939686834256	1.953875993583159	0.9969347705713067
0.015006634439580889	1.0991047247772108e-24	2.0742518074181175e8	5.713789067966044e24	61.617002195403494	62.35939686834256	1.953875993583159	0.9969347705713067
0.015065889981248273	1.1179066318405527e-24	2.0742518074181175e8	5.713789067966044e24	61.617002195403494	62.35939686834256	1.953875993583159	0.9969347705713067
0.015125379500709442	1.1369462405388876e-24	2.0742518074181175e8	5.713789067966044e24	61.617002195403494	62.35939686834256	1.953875993583159	0.9969347705713067
0.015185103921854428	1.1562257828987093e-24	2.0742518074181175e8	5.713789067966044e24	61.617002195403494	62.35939686834256	1.953875993583159	0.9969347705713067
0.01524506417222154	1.175747509994721e-24	2.0742518074181175e8	5.713789067966044e24	61.617002195403494	62.35939686834256	1.953875993583159	0.9969347705713067
0.015305261183011343	1.1955136921059014e-24	2.0742518074181175e8	5.713789067966044e24	61.617002195403494	62.35939686834256	1.953875993583159	0.9969347705713067
0.015365695889101609	1.2155266188731154e-24	2.0742518074181175e8	5.713789067966044e24	61.617002195403494	62.35939686834256	1.953875993583159	0.9969347705713067
0.01542636922906134	1.235788599457679e-24	2.0742518074181175e8	5.713789067966044e24	61.617002195403494	62.35939686834256	1.953875993583159	0.9969347705713067
0.01548728214516584	1.2563019627015286e-24	2.0742518074181175e8	5.713789067966044e24	61.617002195403494	62.35939686834256	1.953875993583159	0.9969347705713067
0.015548435583410921	1.2770690572883647e-24	2.0742518074181175e8	5.713789067966044e24	61.617002195403494	62.35939686834256	1.953875993583159	0.9969347705713067
0.01560983049352777	1.2980922519062995e-24	2.0742518074181175e8	5.713789067966044e24	61.617002195403494	62.35939686834256	1.953875993583159	0.9969347705713067
0.015671467828997903	1.3193739354118279e-24	2.0742518074181175e8	5.713789067966044e24	61.617002195403494	62.35939686834256	1.953875993583159	0.9969347705713067
0.015733348547067504	1.3409165169948802e-24	2.0742518074181175e8	5.713789067966044e24	61.617002195403494	62.35939686834256	1.953875993583159	0.9969347705713067
0.015795473608762836	1.3627224263455567e-24	2.0742518074181175e8	5.713789067966044e24	61.617002195403494	62.35939686834256	1.953875993583159	0.9969347705713067
0.015857843978904624	1.3847941138218259e-24	2.0742518074181175e8	5.713789067966044e24	61.617002195403494	62.35939686834256	1.953875993583159	0.9969347705713067
0.015920460626123567	1.4071340506189447e-24	2.0742518074181175e8	5.713789067966044e24	61.617002195403494	62.35939686834256	1.953875993583159	0.9969347705713067
0.015983324522874928	1.4297447289399013e-24	2.0742518074181175e8	5.713789067966044e24	61.617002195403494	62.35939686834256	1.953875993583159	0.9969347705713067
0.016046436645453823	1.4526286621674465e-24	2.0742518074181175e8	5.713789067966044e24	61.617002195403494	62.35939686834256	1.953875993583159	0.9969347705713067
0.016109797974010603	1.4757883850375335e-24	2.0742518074181175e8	5.713789067966044e24	61.617002195403494	62.35939686834256	1.953875993583159	0.9969347705713067
0.016173409492565582	1.4992264538138822e-24	2.0742518074181175e8	5.713789067966044e24	61.617002195403494	62.35939686834256	1.953875993583159	0.9969347705713067
0.016237272189024862	1.5229454464643373e-24	2.0742518074181175e8	5.713789067966044e24	61.617002195403494	62.35939686834256	1.953875993583159	0.9969347705713067
0.01630138705519517	1.5469479628382493e-24	2.0742518074181175e8	5.713789067966044e24	61.617002195403494	62.35939686834256	1.953875993583159	0.9969347705713067
