r[m]	M[Msun]	rho[g/cm^3]	P[N/m^2]	n_e[pm^-3]	n_p[pm^-3]	muF_e[MeV]	B
0.009999999999999985	-6.09326529797425e-42	655971.8536620808	1.33075220215871e21	0.19549384113085136	0.5920881847114832	0.11082035368884369	0.9997991147216791
0.010041837789446147	1.765407759028869e-29	655971.8536620808	1.33075220215871e21	0.19549384113085136	0.5920881847114832	0.11082035368884369	0.9997991147216791
0.010083850618954886	3.600188357422255e-29	655971.8536620808	1.33075220215871e21	0.19549384113085136	0.5920881847114832	0.11082035368884369	0.9997991147216791
0.010126039220855124	5.503052734539702e-29	655971.8536620808	1.33075220215871e21	0.19549384113085136	0.5920881847114832	0.11082035368884369	0.9997991147216791
0.010168404330539697	7.472666737618058e-29	655971.8536620808	1.33075220215871e21	0.19549384113085136	0.5920881847114832	0.11082035368884369	0.9997991147216791
0.010210946686478154	9.507650266780442e-29	655971.8536620808	1.33075220215871e21	0.19549384113085136	0.5920881847114832	0.11082035368884369	0.9997991147216791
0.010253667030229641	1.1606576406681658e-28	655971.8536620808	1.33075220215871e21	0.19549384113085136	0.5920881847114832	0.11082035368884369	0.9997991147216791
0.010296566106455823	1.3767970544593204e-28	655971.8536620808	1.33075220215871e21	0.19549384113085136	0.5920881847114832	0.11082035368884369	0.9997991147216791
0.010339644662933863	1.5990309474737483e-28	655971.8536620808	1.33075220215871e21	0.19549384113085136	0.5920881847114832	0.11082035368884369	0.9997991147216791
0.01038290345056946	1.8272020488674658e-28	655971.8536620808	1.33075220215871e21	0.19549384113085136	0.5920881847114832	0.11082035368884369	0.9997991147216791
0.010426343223409937	2.0611480451541056e-28	655971.8536620808	1.33075220215871e21	0.19549384113085136	0.5920881847114832	0.11082035368884369	0.9997991147216791
0.010469964738657382	2.3007014863940595e-28	655971.8536620808	1.33075220215871e21	0.19549384113085136	0.5920881847114832	0.11082035368884369	0.9997991147216791
0.010513768756681852	2.5456896909283e-28	655971.8536620808	1.33075220215871e21	0.19549384113085136	0.5920881847114832	0.11082035368884369	0.9997991147216791
0.01055775604103458	2.7959346486358654e-28	655971.8536620808	1.33075220215871e21	0.19549384113085136	0.5920881847114832	0.11082035368884369	0.9997991147216791
0.010601927358461457	3.0512529226957927e-28	655971.8536620808	1.33075220215871e21	0.19549384113085136	0.5920881847114832	0.11082035368884369	0.9997991147216791
0.010646283478916139	3.311455549828141e-28	655971.8536620808	1.33075220215871e21	0.19549384113085136	0.5920881847114832	0.11082035368884369	0.9997991147216791
0.010690825175573645	3.5763479389978046e-28	655971.8536620808	1.33075220215871e21	0.19549384113085136	0.5920881847114832	0.11082035368884369	0.9997991147216791
0.010735553224843784	3.8457297685552457e-28	655971.8536620808	1.33075220215871e21	0.19549384113085136	0.5920881847114832	0.11082035368884369	0.9997991147216791
0.010780468406384693	4.119394881793823e-28	655971.8536620808	1.33075220215871e21	0.19549384113085136	0.5920881847114832	0.11082035368884369	0.9997991147216791
0.010825571503116428	4.397131180900714e-28	655971.8536620808	1.33075220215871e21	0.19549384113085136	0.5920881847114832	0.11082035368884369	0.9997991147216791
0.010870863301234605	4.678720519278742e-28	655971.8536620808	1.33075220215871e21	0.19549384113085136	0.5920881847114832	0.11082035368884369	0.9997991147216791
0.010916344590224112	4.963938592216288e-28	655971.8536620808	1.33075220215871e21	0.19549384113085136	0.5920881847114832	0.11082035368884369	0.9997991147216791
0.010962016162872868	5.2525548258814195e-28	655971.8536620808	1.33075220215871e21	0.19549384113085136	0.5920881847114832	0.11082035368884369	0.9997991147216791
0.01100787881528564	5.54433226461714e-28	655971.8536620808	1.33075220215871e21	0.19549384113085136	0.5920881847114832	0.11082035368884369	0.9997991147216791
0.01105393334689792	5.839027456513089e-28	655971.8536620808	1.33075220215871e21	0.19549384113085136	0.5920881847114832	0.11082035368884369	0.9997991147216791
0.011100180560489862	6.136390337229984e-28	655971.8536620808	1.33075220215871e21	0.19549384113085136	0.5920881847114832	0.11082035368884369	0.9997991147216791
0.01114662126220028	6.4361641120517385e-28	655971.8536620808	1.33075220215871e21	0.19549384113085136	0.5920881847114832	0.11082035368884369	0.9997991147216791
0.011193256261540685	6.738085136140192e-28	655971.8536620808	1.33075220215871e21	0.19549384113085136	0.5920881847114832	0.11082035368884369	0.9997991147216791
0.011240086371409415	7.041882792967555e-28	655971.8536620808	1.33075220215871e21	0.19549384113085136	0.5920881847114832	0.11082035368884369	0.9997991147216791
0.011287112408105787	7.347279370900386e-28	655971.8536620808	1.33075220215871e21	0.19549384113085136	0.5920881847114832	0.11082035368884369	0.9997991147216791
0.011334335191344337	7.653989937909325e-28	655971.8536620808	1.33075220215871e21	0.19549384113085136	0.5920881847114832	0.11082035368884369	0.9997991147216791
0.011381755544269106	7.961722214378259e-28	655971.8536620808	1.33075220215871e21	0.19549384113085136	0.5920881847114832	0.11082035368884369	0.9997991147216791
0.01142937429346799	8.270176443985964e-28	655971.8536620808	1.33075220215871e21	0.19549384113085136	0.5920881847114832	0.11082035368884369	0.9997991147216791
0.011477192268987139	8.579045262633204e-28	655971.8536620808	1.33075220215871e21	0.19549384113085136	0.5920881847114832	0.11082035368884369	0.9997991147216791
0.011525210304345444	8.888013565388113e-28	655971.8536620808	1.33075220215871e21	0.19549384113085136	0.5920881847114832	0.11082035368884369	0.9997991147216791
0.011573429236549039	9.196758371421338e-28	655971.8536620808	1.33075220215871e21	0.19549384113085136	0.5920881847114832	0.11082035368884369	0.9997991147216791
0.011621849906105871	9.504948686903334e-28	655971.8536620808	1.33075220215871e21	0.19549384113085136	0.5920881847114832	0.11082035368884369	0.9997991147216791
0.011670473157040527	9.812245365836224e-28	655971.8536620808	1.33075220215871e21	0.19549384113085136	0.5920881847114832	0.11082035368884369	0.9997991147216791
0.011719299836908663	1.0118300968787172e-27	655971.8536620808	1.33075220215871e21	0.19549384113085136	0.5920881847114832	0.11082035368884369	0.9997991147216791
0.011768330796811968	1.042275961949984e-27	655971.8536620808	1.33075220215871e21	0.19549384113085136	0.5920881847114832	0.11082035368884369	0.9997991147216791
0.01181756689141295	1.0725256859349604e-27	655971.8536620808	1.33075220215871e21	0.19549384113085136	0.5920881847114832	0.11082035368884369	0.9997991147216791
0.011867008978949838	1.1025419499614143e-27	655971.8536620808	1.33075220215871e21	0.19549384113085136	0.5920881847114832	0.11082035368884369	0.9997991147216791
0.011916657921251541	1.132286547152875e-27	655971.8536620808	1.33075220215871e21	0.19549384113085136	0.5920881847114832	0.11082035368884369	0.9997991147216791
0.011966514583752669	1.1619433951423952e-27	655971.8536620808	1.33075220215871e21	0.19549384113085136	0.5920881847114832	0.11082035368884369	0.9997991147216791
0.012016579835508618	1.1926131302962715e-27	655971.8536620808	1.33075220215871e21	0.19549384113085136	0.5920881847114832	0.11082035368884369	0.9997991147216791
0.01206685454921072	1.2244262825967335e-27	655971.8536620808	1.33075220215871e21	0.19549384113085136	0.5920881847114832	0.11082035368884369	0.9997991147216791
0.012117339601201456	1.2573538191462243e-27	655971.8536620808	1.33075220215871e21	0.19549384113085136	0.5920881847114832	0.11082035368884369	0.9997991147216791
0.012168035871489727	1.2913657685210501e-27	655971.8536620808	1.33075220215871e21	0.19549384113085136	0.5920881847114832	0.11082035368884369	0.9997991147216791
0.012218944243766202	1.3264312032694683e-27	655971.8536620808	1.33075220215871e21	0.19549384113085136	0.5920881847114832	0.11082035368884369	0.9997991147216791
0.012270065605418712	1.3625182221379634e-27	655971.8536620808	1.33075220215871e21	0.19549384113085136	0.5920881847114832	0.11082035368884369	0.9997991147216791
0.012321400847547724	1.3995939320218493e-27	655971.8536620808	1.33075220215871e21	0.19549384113085136	0.5920881847114832	0.11082035368884369	0.9997991147216791
0.012372950864981871	1.4376244296362701e-27	655971.8536620808	1.33075220215871e21	0.19549384113085136	0.5920881847114832	0.11082035368884369	0.9997991147216791
0.012424716556293555	1.4765747829036329e-27	655971.8536620808	1.33075220215871e21	0.19549384113085136	0.5920881847114832	0.11082035368884369	0.9997991147216791
0.012476698823814603	1.5164090120534268e-27	655971.8536620808	1.33075220215871e21	0.19549384113085136	0.5920881847114832	0.11082035368884369	0.9997991147216791
0.012528898573651998	1.5570900704303463e-27	655971.8536620808	1.33075220215871e21	0.19549384113085136	0.5920881847114832	0.11082035368884369	0.9997991147216791
0.012581316715703674	1.5985798250065949e-27	655971.8536620808	1.33075220215871e21	0.19549384113085136	0.5920881847114832	0.11082035368884369	0.9997991147216791
0.012633954163674386	1.640839036594159e-27	655971.8536620808	1.33075220215871e21	0.19549384113085136	0.5920881847114832	0.11082035368884369	0.9997991147216791
0.012686811835091615	1.683827339752787e-27	655971.8536620808	1.33075220215871e21	0.19549384113085136	0.5920881847114832	0.11082035368884369	0.9997991147216791
0.01273989065132158	1.727503222389388e-27	655971.8536620808	1.33075220215871e21	0.19549384113085136	0.5920881847114832	0.11082035368884369	0.9997991147216791
0.012793191537585293	1.7718240050444666e-27	655971.8536620808	1.33075220215871e21	0.19549384113085136	0.5920881847114832	0.11082035368884369	0.9997991147216791
0.012846715422974634	1.816745819861125e-27	655971.8536620808	1.33075220215871e21	0.19549384113085136	0.5920881847114832	0.11082035368884369	0.9997991147216791
0.012900463240468753	1.8622235892323948e-27	655971.8536620808	1.33075220215871e21	0.19549384113085136	0.5920881847114832	0.11082035368884369	0.9997991147216791
0.012954435926950024	1.9082110041217138e-27	655971.8536620808	1.33075220215871e21	0.19549384113085136	0.5920881847114832	0.11082035368884369	0.9997991147216791
0.013008634423220578	1.954660502052793e-27	655971.8536620808	1.33075220215871e21	0.19549384113085136	0.5920881847114832	0.11082035368884369	0.9997991147216791
0.013063059674018659	2.0015232447635538e-27	655971.8536620808	1.33075220215871e21	0.19549384113085136	0.5920881847114832	0.11082035368884369	0.9997991147216791
0.013117712628035086	2.048749095519673e-27	655971.8536620808	1.33075220215871e21	0.19549384113085136	0.5920881847114832	0.11082035368884369	0.9997991147216791
0.013172594237929785	2.0962865960828467e-27	655971.8536620808	1.33075220215871e21	0.19549384113085136	0.5920881847114832	0.11082035368884369	0.9997991147216791
0.013227705460348411	2.1440829433289834e-27	655971.8536620808	1.33075220215871e21	0.19549384113085136	0.5920881847114832	0.11082035368884369	0.9997991147216791
0.013283047255939002	2.1920839655113016e-27	655971.8536620808	1.33075220215871e21	0.19549384113085136	0.5920881847114832	0.11082035368884369	0.9997991147216791
0.013338620589368744	2.240234098163435e-27	655971.8536620808	1.33075220215871e21	0.19549384113085136	0.5920881847114832	0.11082035368884369	0.9997991147216791
0.013394426429340772	2.2884763596373912e-27	655971.8536620808	1.33075220215871e21	0.19549384113085136	0.5920881847114832	0.11082035368884369	0.9997991147216791
0.01345046574861106	2.336752326271285e-27	655971.8536620808	1.33075220215871e21	0.19549384113085136	0.5920881847114832	0.11082035368884369	0.9997991147216791
0.013506739524005381	2.3850021071816306e-27	655971.8536620808	1.33075220215871e21	0.19549384113085136	0.5920881847114832	0.11082035368884369	0.9997991147216791
0.013563248736436334	2.4331643186749155e-27	655971.8536620808	1.33075220215871e21	0.19549384113085136	0.5920881847114832	0.11082035368884369	0.9997991147216791
0.013619994370920428	2.4811760582731034e-27	655971.8536620808	1.33075220215871e21	0.19549384113085136	0.5920881847114832	0.11082035368884369	0.9997991147216791
0.013676977416595277	2.5289728783476835e-27	655971.8536620808	1.33075220215871e21	0.19549384113085136	0.5920881847114832	0.11082035368884369	0.9997991147216791
0.013734198866736824	2.5764887593567365e-27	655971.8536620808	1.33075220215871e21	0.19549384113085136	0.5920881847114832	0.11082035368884369	0.9997991147216791
0.013791659718776649	2.6236560826794744e-27	655971.8536620808	1.33075220215871e21	0.19549384113085136	0.5920881847114832	0.11082035368884369	0.9997991147216791
0.01384936097431938	2.6704056030426474e-27	655971.8536620808	1.33075220215871e21	0.19549384113085136	0.5920881847114832	0.11082035368884369	0.9997991147216791
0.013907303639160129	2.7169643719005363e-27	655971.8536620808	1.33075220215871e21	0.19549384113085136	0.5920881847114832	0.11082035368884369	0.9997991147216791
0.013965488723302033	2.7651468834297273e-27	655971.8536620808	1.33075220215871e21	0.19549384113085136	0.5920881847114832	0.11082035368884369	0.9997991147216791
0.01402391724097386	2.8152578300510623e-27	655971.8536620808	1.33075220215871e21	0.19549384113085136	0.5920881847114832	0.11082035368884369	0.9997991147216791
0.014082590210647688	2.8672790506415193e-27	655971.8536620808	1.33075220215871e21	0.19549384113085136	0.5920881847114832	0.11082035368884369	0.9997991147216791
0.014141508655056655	2.9211915750686543e-27	655971.8536620808	1.33075220215871e21	0.19549384113085136	0.5920881847114832	0.11082035368884369	0.9997991147216791
0.014200673601212735	2.97697560819238e-27	655971.8536620808	1.33075220215871e21	0.19549384113085136	0.5920881847114832	0.11082035368884369	0.9997991147216791
0.014260086080424856	3.0346105136127768e-27	655971.8536620808	1.33075220215871e21	0.19549384113085136	0.5920881847114832	0.11082035368884369	0.9997991147216791
0.014319747128316554	3.0940747971595314e-27	655971.8536620808	1.33075220215871e21	0.19549384113085136	0.5920881847114832	0.11082035368884369	0.9997991147216791
0.014379657784844235	3.1553460901202896e-27	655971.8536620808	1.33075220215871e21	0.19549384113085136	0.5920881847114832	0.11082035368884369	0.9997991147216791
0.014439819094315253	3.2184011322034403e-27	655971.8536620808	1.33075220215871e21	0.19549384113085136	0.5920881847114832	0.11082035368884369	0.9997991147216791
0.01450023210540612	3.283215754231789e-27	655971.8536620808	1.33075220215871e21	0.19549384113085136	0.5920881847114832	0.11082035368884369	0.9997991147216791
0.014560897871180766	3.34976486056317e-27	655971.8536620808	1.33075220215871e21	0.19549384113085136	0.5920881847114832	0.11082035368884369	0.9997991147216791
0.014621817449108922	3.418022411234203e-27	655971.8536620808	1.33075220215871e21	0.19549384113085136	0.5920881847114832	0.11082035368884369	0.9997991147216791
0.014682991901084528	3.4879614038230476e-27	655971.8536620808	1.33075220215871e21	0.19549384113085136	0.5920881847114832	0.11082035368884369	0.9997991147216791
0.014744422293444259	3.559553855027296e-27	655971.8536620808	1.33075220215871e21	0.19549384113085136	0.5920881847114832	0.11082035368884369	0.9997991147216791
0.014806109696986099	3.632770781952796e-27	655971.8536620808	1.33075220215871e21	0.19549384113085136	0.5920881847114832	0.11082035368884369	0.9997991147216791
0.014868055186988029	3.7075821831093764e-27	655971.8536620808	1.33075220215871e21	0.19549384113085136	0.5920881847114832	0.11082035368884369	0.9997991147216791
0.014930259843226745	3.783957019109166e-27	655971.8536620808	1.33075220215871e21	0.19549384113085136	0.5920881847114832	0.11082035368884369	0.9997991147216791
0.014992724749996486	3.8618631930633516e-27	655971.8536620808	1.33075220215871e21	0.19549384113085136	0.5920881847114832	0.11082035368884369	0.9997991147216791
0.015055450996127949	3.941267530673051e-27	655971.8536620808	1.33075220215871e21	0.19549384113085136	0.5920881847114832	0.11082035368884369	0.9997991147216791
0.015118439675007252	4.022135760009879e-27	655971.8536620808	1.33075220215871e21	0.19549384113085136	0.5920881847114832	0.11082035368884369	0.9997991147216791
0.015181691884595002	4.104432490981837e-27	655971.8536620808	1.33075220215871e21	0.19549384113085136	0.5920881847114832	0.11082035368884369	0.9997991147216791
0.015245208727445423	4.188121194480021e-27	655971.8536620808	1.33075220215871e21	0.19549384113085136	0.5920881847114832	0.11082035368884369	0.9997991147216791
0.01530899131072559	4.273164181201631e-27	655971.8536620808	1.33075220215871e21	0.19549384113085136	0.5920881847114832	0.11082035368884369	0.9997991147216791
0.015373040746234717	4.3595225801445784e-27	655971.8536620808	1.33075220215871e21	0.19549384113085136	0.5920881847114832	0.11082035368884369	0.9997991147216791
0.015437358150423543	4.447156316769166e-27	655971.8536620808	1.33075220215871e21	0.19549384113085136	0.5920881847114832	0.11082035368884369	0.9997991147216791
0.015501944644413785	4.536024090821959e-27	655971.8536620808	1.33075220215871e21	0.19549384113085136	0.5920881847114832	0.11082035368884369	0.9997991147216791
0.015566801354017694	4.626083353817192e-27	655971.8536620808	1.33075220215871e21	0.19549384113085136	0.5920881847114832	0.11082035368884369	0.9997991147216791
0.015631929409757658	4.717290286170674e-27	655971.8536620808	1.33075220215871e21	0.19549384113085136	0.5920881847114832	0.11082035368884369	0.9997991147216791
0.015697329946885864	4.8095997739813736e-27	655971.8536620808	1.33075220215871e21	0.19549384113085136	0.5920881847114832	0.11082035368884369	0.9997991147216791
0.015763004105404342	4.902965385456068e-27	655971.8536620808	1.33075220215871e21	0.19549384113085136	0.5920881847114832	0.11082035368884369	0.9997991147216791
0.01582895303008443	4.997339346970695e-27	655971.8536620808	1.33075220215871e21	0.19549384113085136	0.5920881847114832	0.11082035368884369	0.9997991147216791
0.01589517787048702	5.092672518765109e-27	655971.8536620808	1.33075220215871e21	0.19549384113085136	0.5920881847114832	0.11082035368884369	0.9997991147216791
0.015961679780982497	5.18891437026465e-27	655971.8536620808	1.33075220215871e21	0.19549384113085136	0.5920881847114832	0.11082035368884369	0.9997991147216791
0.016028459920770878	5.286012955023753e-27	655971.8536620808	1.33075220215871e21	0.19549384113085136	0.5920881847114832	0.11082035368884369	0.9997991147216791
0.016095519453902026	5.3839148852863206e-27	655971.8536620808	1.33075220215871e21	0.19549384113085136	0.5920881847114832	0.11082035368884369	0.9997991147216791
0.016162859549295923	5.48256530615721e-27	655971.8536620808	1.33075220215871e21	0.19549384113085136	0.5920881847114832	0.11082035368884369	0.9997991147216791
0.016230481380763058	5.581907869379552e-27	655971.8536620808	1.33075220215871e21	0.19549384113085136	0.5920881847114832	0.11082035368884369	0.9997991147216791
0.01629838612702488	5.681884706712217e-27	655971.8536620808	1.33075220215871e21	0.19549384113085136	0.5920881847114832	0.11082035368884369	0.9997991147216791
0.016366574971734358	5.782436402901853e-27	655971.8536620808	1.33075220215871e21	0.19549384113085136	0.5920881847114832	0.11082035368884369	0.9997991147216791
0.016435049103496583	5.8835019682437e-27	655971.8536620808	1.33075220215871e21	0.19549384113085136	0.5920881847114832	0.11082035368884369	0.9997991147216791
0.016503809715889526	5.985018810725529e-27	655971.8536620808	1.33075220215871e21	0.19549384113085136	0.5920881847114832	0.11082035368884369	0.9997991147216791
0.016572858007484818	6.086922707748665e-27	655971.8536620808	1.33075220215871e21	0.19549384113085136	0.5920881847114832	0.11082035368884369	0.9997991147216791
0.01664219518186865	6.189147777420265e-27	655971.8536620808	1.33075220215871e21	0.19549384113085136	0.5920881847114832	0.11082035368884369	0.9997991147216791
0.01671182244766275	6.291626449410784e-27	655971.8536620808	1.33075220215871e21	0.19549384113085136	0.5920881847114832	0.11082035368884369	0.9997991147216791
0.016781741018545446	6.394289435370486e-27	655971.8536620808	1.33075220215871e21	0.19549384113085136	0.5920881847114832	0.11082035368884369	0.9997991147216791
