r[m]	M[Msun]	rho[g/cm^3]	P[N/m^2]	n_e[pm^-3]	n_p[pm^-3]	muF_e[MeV]	B
0.009999999999999992	-1.6809007718549656e-40	3.6072874353296645e7	5.197453276349545e23	10.7888966754542	32.550030369478606	0.9315405473332466	0.9984481488293127
0.010040294559392354	9.329409434131549e-28	3.6072874353296645e7	5.197453276349545e23	10.7888966754542	32.550030369478606	0.9315405473332466	0.9984481488293127
0.010080751483936334	1.8966659117142287e-27	3.6072874353296645e7	5.197453276349545e23	10.7888966754542	32.550030369478606	0.9315405473332466	0.9984481488293127
0.010121371427875244	2.887942599588885e-27	3.6072874353296645e7	5.197453276349545e23	10.7888966754542	32.550030369478606	0.9315405473332466	0.9984481488293127
0.010162155048088468	3.90345518912223e-27	3.6072874353296645e7	5.197453276349545e23	10.7888966754542	32.550030369478606	0.9315405473332466	0.9984481488293127
0.010203103004102427	4.939802917522371e-27	3.6072874353296645e7	5.197453276349545e23	10.7888966754542	32.550030369478606	0.9315405473332466	0.9984481488293127
0.010244215958100903	5.993498623816513e-27	3.6072874353296645e7	5.197453276349545e23	10.7888966754542	32.550030369478606	0.9315405473332466	0.9984481488293127
0.01028549457493609	7.060967274267724e-27	3.6072874353296645e7	5.197453276349545e23	10.7888966754542	32.550030369478606	0.9315405473332466	0.9984481488293127
0.010326939522139004	8.138544466189422e-27	3.6072874353296645e7	5.197453276349545e23	10.7888966754542	32.550030369478606	0.9315405473332466	0.9984481488293127
0.010368551469930619	9.22247490989898e-27	3.6072874353296645e7	5.197453276349545e23	10.7888966754542	32.550030369478606	0.9315405473332466	0.9984481488293127
0.010410331091232364	1.0308910888479708e-26	3.6072874353296645e7	5.197453276349545e23	10.7888966754542	32.550030369478606	0.9315405473332466	0.9984481488293127
0.010452279061677342	1.1393910695084538e-26	3.6072874353296645e7	5.197453276349545e23	10.7888966754542	32.550030369478606	0.9315405473332466	0.9984481488293127
0.01049439605962093	1.2473437047444103e-26	3.6072874353296645e7	5.197453276349545e23	10.7888966754542	32.550030369478606	0.9315405473332466	0.9984481488293127
0.010536682766152064	1.354605933049501e-26	3.6072874353296645e7	5.197453276349545e23	10.7888966754542	32.550030369478606	0.9315405473332466	0.9984481488293127
0.01057913986510394	1.464503288094193e-26	3.6072874353296645e7	5.197453276349545e23	10.7888966754542	32.550030369478606	0.9315405473332466	0.9984481488293127
0.010621768043065392	1.577834949812521e-26	3.6072874353296645e7	5.197453276349545e23	10.7888966754542	32.550030369478606	0.9315405473332466	0.9984481488293127
0.010664567989391666	1.694199445811668e-26	3.6072874353296645e7	5.197453276349545e23	10.7888966754542	32.550030369478606	0.9315405473332466	0.9984481488293127
0.010707540396215907	1.8131849984089067e-26	3.6072874353296645e7	5.197453276349545e23	10.7888966754542	32.550030369478606	0.9315405473332466	0.9984481488293127
0.01075068595846005	1.9343693482145304e-26	3.6072874353296645e7	5.197453276349545e23	10.7888966754542	32.550030369478606	0.9315405473332466	0.9984481488293127
0.010794005373846184	2.0573195751301272e-26	3.6072874353296645e7	5.197453276349545e23	10.7888966754542	32.550030369478606	0.9315405473332466	0.9984481488293127
0.010837499342907975	2.1815919167259122e-26	3.6072874353296645e7	5.197453276349545e23	10.7888966754542	32.550030369478606	0.9315405473332466	0.9984481488293127
0.01088116856900168	2.3067315839602794e-26	3.6072874353296645e7	5.197453276349545e23	10.7888966754542	32.550030369478606	0.9315405473332466	0.9984481488293127
0.010925013758317871	2.4322725742087113e-26	3.6072874353296645e7	5.197453276349545e23	10.7888966754542	32.550030369478606	0.9315405473332466	0.9984481488293127
0.010969035619892516	2.5577374815616706e-26	3.6072874353296645e7	5.197453276349545e23	10.7888966754542	32.550030369478606	0.9315405473332466	0.9984481488293127
0.011013234865618785	2.6826373043585145e-26	3.6072874353296645e7	5.197453276349545e23	10.7888966754542	32.550030369478606	0.9315405473332466	0.9984481488293127
0.011057612210258208	2.806678382383583e-26	3.6072874353296645e7	5.197453276349545e23	10.7888966754542	32.550030369478606	0.9315405473332466	0.9984481488293127
0.011102168371452604	2.933671836596499e-26	3.6072874353296645e7	5.197453276349545e23	10.7888966754542	32.550030369478606	0.9315405473332466	0.9984481488293127
0.011146904069735305	3.065050566331103e-26	3.6072874353296645e7	5.197453276349545e23	10.7888966754542	32.550030369478606	0.9315405473332466	0.9984481488293127
0.011191820028543194	3.200591084285572e-26	3.6072874353296645e7	5.197453276349545e23	10.7888966754542	32.550030369478606	0.9315405473332466	0.9984481488293127
0.011236916974228026	3.340063748633419e-26	3.6072874353296645e7	5.197453276349545e23	10.7888966754542	32.550030369478606	0.9315405473332466	0.9984481488293127
0.01128219563606853	3.483232655665622e-26	3.6072874353296645e7	5.197453276349545e23	10.7888966754542	32.550030369478606	0.9315405473332466	0.9984481488293127
0.011327656746281863	3.6298555308442875e-26	3.6072874353296645e7	5.197453276349545e23	10.7888966754542	32.550030369478606	0.9315405473332466	0.9984481488293127
0.011373301040035796	3.779683618250414e-26	3.6072874353296645e7	5.197453276349545e23	10.7888966754542	32.550030369478606	0.9315405473332466	0.9984481488293127
0.01141912925546029	3.932461568399702e-26	3.6072874353296645e7	5.197453276349545e23	10.7888966754542	32.550030369478606	0.9315405473332466	0.9984481488293127
0.011465142133659562	4.0879273244076835e-26	3.6072874353296645e7	5.197453276349545e23	10.7888966754542	32.550030369478606	0.9315405473332466	0.9984481488293127
0.01151134041872422	4.245812006480347e-26	3.6072874353296645e7	5.197453276349545e23	10.7888966754542	32.550030369478606	0.9315405473332466	0.9984481488293127
0.01155772485774297	4.405839794705877e-26	3.6072874353296645e7	5.197453276349545e23	10.7888966754542	32.550030369478606	0.9315405473332466	0.9984481488293127
0.011604296200815059	4.5677278101282576e-26	3.6072874353296645e7	5.197453276349545e23	10.7888966754542	32.550030369478606	0.9315405473332466	0.9984481488293127
0.01165105520106204	4.731185994074681e-26	3.6072874353296645e7	5.197453276349545e23	10.7888966754542	32.550030369478606	0.9315405473332466	0.9984481488293127
0.011698002614640327	4.8959169857180297e-26	3.6072874353296645e7	5.197453276349545e23	10.7888966754542	32.550030369478606	0.9315405473332466	0.9984481488293127
0.01174513920075304	5.061615997845319e-26	3.6072874353296645e7	5.197453276349545e23	10.7888966754542	32.550030369478606	0.9315405473332466	0.9984481488293127
0.011792465721662669	5.227970690813088e-26	3.6072874353296645e7	5.197453276349545e23	10.7888966754542	32.550030369478606	0.9315405473332466	0.9984481488293127
0.011839982942703014	5.394661044659866e-26	3.6072874353296645e7	5.197453276349545e23	10.7888966754542	32.550030369478606	0.9315405473332466	0.9984481488293127
0.011887691632291942	5.56135922935593e-26	3.6072874353296645e7	5.197453276349545e23	10.7888966754542	32.550030369478606	0.9315405473332466	0.9984481488293127
0.011935592561943438	5.727729473160065e-26	3.6072874353296645e7	5.197453276349545e23	10.7888966754542	32.550030369478606	0.9315405473332466	0.9984481488293127
0.011983686506280464	5.893427929062811e-26	3.6072874353296645e7	5.197453276349545e23	10.7888966754542	32.550030369478606	0.9315405473332466	0.9984481488293127
0.01203197424304709	6.058102539285081e-26	3.6072874353296645e7	5.197453276349545e23	10.7888966754542	32.550030369478606	0.9315405473332466	0.9984481488293127
0.012080456553121472	6.221392897811284e-26	3.6072874353296645e7	5.197453276349545e23	10.7888966754542	32.550030369478606	0.9315405473332466	0.9984481488293127
0.012129134220528082	6.38522662797719e-26	3.6072874353296645e7	5.197453276349545e23	10.7888966754542	32.550030369478606	0.9315405473332466	0.9984481488293127
0.012178008032450779	6.554683001271929e-26	3.6072874353296645e7	5.197453276349545e23	10.7888966754542	32.550030369478606	0.9315405473332466	0.9984481488293127
0.012227078779245204	6.729668159088323e-26	3.6072874353296645e7	5.197453276349545e23	10.7888966754542	32.550030369478606	0.9315405473332466	0.9984481488293127
0.01227634725445169	6.909851440248233e-26	3.6072874353296645e7	5.197453276349545e23	10.7888966754542	32.550030369478606	0.9315405473332466	0.9984481488293127
0.012325814254808264	7.09489324253059e-26	3.6072874353296645e7	5.197453276349545e23	10.7888966754542	32.550030369478606	0.9315405473332466	0.9984481488293127
0.012375480580263172	7.28444486744545e-26	3.6072874353296645e7	5.197453276349545e23	10.7888966754542	32.550030369478606	0.9315405473332466	0.9984481488293127
0.012425347033988215	7.478148362721746e-26	3.6072874353296645e7	5.197453276349545e23	10.7888966754542	32.550030369478606	0.9315405473332466	0.9984481488293127
0.012475414422391336	7.67563636247197e-26	3.6072874353296645e7	5.197453276349545e23	10.7888966754542	32.550030369478606	0.9315405473332466	0.9984481488293127
0.012525683555130073	7.876531925008175e-26	3.6072874353296645e7	5.197453276349545e23	10.7888966754542	32.550030369478606	0.9315405473332466	0.9984481488293127
0.012576155245124232	8.080448368271051e-26	3.6072874353296645e7	5.197453276349545e23	10.7888966754542	32.550030369478606	0.9315405473332466	0.9984481488293127
0.012626830308569452	8.286989102846191e-26	3.6072874353296645e7	5.197453276349545e23	10.7888966754542	32.550030369478606	0.9315405473332466	0.9984481488293127
0.012677709564949992	8.495747462528091e-26	3.6072874353296645e7	5.197453276349545e23	10.7888966754542	32.550030369478606	0.9315405473332466	0.9984481488293127
0.012728793837052391	8.706306532405256e-26	3.6072874353296645e7	5.197453276349545e23	10.7888966754542	32.550030369478606	0.9315405473332466	0.9984481488293127
0.01278008395097836	8.918238974426177e-26	3.6072874353296645e7	5.197453276349545e23	10.7888966754542	32.550030369478606	0.9315405473332466	0.9984481488293127
0.012831580736158565	9.131106850418711e-26	3.6072874353296645e7	5.197453276349545e23	10.7888966754542	32.550030369478606	0.9315405473332466	0.9984481488293127
0.012883285025365614	9.344461442521367e-26	3.6072874353296645e7	5.197453276349545e23	10.7888966754542	32.550030369478606	0.9315405473332466	0.9984481488293127
0.012935197654727944	9.557843070998646e-26	3.6072874353296645e7	5.197453276349545e23	10.7888966754542	32.550030369478606	0.9315405473332466	0.9984481488293127
0.01298731946374298	9.77078090939807e-26	3.6072874353296645e7	5.197453276349545e23	10.7888966754542	32.550030369478606	0.9315405473332466	0.9984481488293127
0.013039651295290864	9.982792797018391e-26	3.6072874353296645e7	5.197453276349545e23	10.7888966754542	32.550030369478606	0.9315405473332466	0.9984481488293127
0.013092193995648241	1.019338504865053e-25	3.6072874353296645e7	5.197453276349545e23	10.7888966754542	32.550030369478606	0.9315405473332466	0.9984481488293127
0.013144948414501582	1.0402098076199341e-25	3.6072874353296645e7	5.197453276349545e23	10.7888966754542	32.550030369478606	0.9315405473332466	0.9984481488293127
0.013197915404961348	1.0611941061952176e-25	3.6072874353296645e7	5.197453276349545e23	10.7888966754542	32.550030369478606	0.9315405473332466	0.9984481488293127
0.01325109582357535	1.0824992741695607e-25	3.6072874353296645e7	5.197453276349545e23	10.7888966754542	32.550030369478606	0.9315405473332466	0.9984481488293127
0.013304490530343042	1.1041285127434793e-25	3.6072874353296645e7	5.197453276349545e23	10.7888966754542	32.550030369478606	0.9315405473332466	0.9984481488293127
0.013358100388728988	1.1260850514260696e-25	3.6072874353296645e7	5.197453276349545e23	10.7888966754542	32.550030369478606	0.9315405473332466	0.9984481488293127
0.013411926265677264	1.148372148273692e-25	3.6072874353296645e7	5.197453276349545e23	10.7888966754542	32.550030369478606	0.9315405473332466	0.9984481488293127
0.013465969031625039	1.170993090130258e-25	3.6072874353296645e7	5.197453276349545e23	10.7888966754542	32.550030369478606	0.9315405473332466	0.9984481488293127
0.01352022956051709	1.1939511928698668e-25	3.6072874353296645e7	5.197453276349545e23	10.7888966754542	32.550030369478606	0.9315405473332466	0.9984481488293127
0.013574708729819496	1.2172498016410653e-25	3.6072874353296645e7	5.197453276349545e23	10.7888966754542	32.550030369478606	0.9315405473332466	0.9984481488293127
0.013629407420534267	1.2408922911135034e-25	3.6072874353296645e7	5.197453276349545e23	10.7888966754542	32.550030369478606	0.9315405473332466	0.9984481488293127
0.013684326517213151	1.2648820657262322e-25	3.6072874353296645e7	5.197453276349545e23	10.7888966754542	32.550030369478606	0.9315405473332466	0.9984481488293127
0.013739466907972382	1.2892225599384428e-25	3.6072874353296645e7	5.197453276349545e23	10.7888966754542	32.550030369478606	0.9315405473332466	0.9984481488293127
0.013794829484506591	1.313917238481876e-25	3.6072874353296645e7	5.197453276349545e23	10.7888966754542	32.550030369478606	0.9315405473332466	0.9984481488293127
0.013850415142103684	1.3389695966157049e-25	3.6072874353296645e7	5.197453276349545e23	10.7888966754542	32.550030369478606	0.9315405473332466	0.9984481488293127
0.013906224779658919	1.364383160383149e-25	3.6072874353296645e7	5.197453276349545e23	10.7888966754542	32.550030369478606	0.9315405473332466	0.9984481488293127
0.013962259299689613	1.3901614868704382e-25	3.6072874353296645e7	5.197453276349545e23	10.7888966754542	32.550030369478606	0.9315405473332466	0.9984481488293127
0.0140185196083499	1.4163081644679312e-25	3.6072874353296645e7	5.197453276349545e23	10.7888966754542	32.550030369478606	0.9315405473332466	0.9984481488293127
0.014075006615445007	1.4428268131331115e-25	3.6072874353296645e7	5.197453276349545e23	10.7888966754542	32.550030369478606	0.9315405473332466	0.9984481488293127
0.014131721234446398	1.4697210846561506e-25	3.6072874353296645e7	5.197453276349545e23	10.7888966754542	32.550030369478606	0.9315405473332466	0.9984481488293127
0.014188664382506109	1.4969946629272154e-25	3.6072874353296645e7	5.197453276349545e23	10.7888966754542	32.550030369478606	0.9315405473332466	0.9984481488293127
0.014245836980472026	1.5246512642064357e-25	3.6072874353296645e7	5.197453276349545e23	10.7888966754542	32.550030369478606	0.9315405473332466	0.9984481488293127
0.01430323995290232	1.5526946373956291e-25	3.6072874353296645e7	5.197453276349545e23	10.7888966754542	32.550030369478606	0.9315405473332466	0.9984481488293127
0.01436087422808086	1.5811285643127205e-25	3.6072874353296645e7	5.197453276349545e23	10.7888966754542	32.550030369478606	0.9315405473332466	0.9984481488293127
0.014418740738031764	1.6099568599679749e-25	3.6072874353296645e7	5.197453276349545e23	10.7888966754542	32.550030369478606	0.9315405473332466	0.9984481488293127
0.014476840418534932	1.6391833728429438e-25	3.6072874353296645e7	5.197453276349545e23	10.7888966754542	32.550030369478606	0.9315405473332466	0.9984481488293127
0.01453517420914071	1.6688119851712625e-25	3.6072874353296645e7	5.197453276349545e23	10.7888966754542	32.550030369478606	0.9315405473332466	0.9984481488293127
0.014593743053185565	1.698846613222214e-25	3.6072874353296645e7	5.197453276349545e23	10.7888966754542	32.550030369478606	0.9315405473332466	0.9984481488293127
0.014652547897806846	1.7292912075861484e-25	3.6072874353296645e7	5.197453276349545e23	10.7888966754542	32.550030369478606	0.9315405473332466	0.9984481488293127
0.014711589693958606	1.760149753462756e-25	3.6072874353296645e7	5.197453276349545e23	10.7888966754542	32.550030369478606	0.9315405473332466	0.9984481488293127
0.014770869396426533	1.7914262709512282e-25	3.6072874353296645e7	5.197453276349545e23	10.7888966754542	32.550030369478606	0.9315405473332466	0.9984481488293127
0.014830387963843584	1.8231248153431192e-25	3.6072874353296645e7	5.197453276349545e23	10.7888966754542	32.550030369478606	0.9315405473332466	0.9984481488293127
0.01489014635870567	1.8552494774176312e-25	3.6072874353296645e7	5.197453276349545e23	10.7888966754542	32.550030369478606	0.9315405473332466	0.9984481488293127
0.014950145547386787	1.8878043837389969e-25	3.6072874353296645e7	5.197453276349545e23	10.7888966754542	32.550030369478606	0.9315405473332466	0.9984481488293127
0.01501038650015515	1.920793696956799e-25	3.6072874353296645e7	5.197453276349545e23	10.7888966754542	32.550030369478606	0.9315405473332466	0.9984481488293127
0.015070870191188366	1.9542216161082234e-25	3.6072874353296645e7	5.197453276349545e23	10.7888966754542	32.550030369478606	0.9315405473332466	0.9984481488293127
0.015131597598589706	1.9880923769233538e-25	3.6072874353296645e7	5.197453276349545e23	10.7888966754542	32.550030369478606	0.9315405473332466	0.9984481488293127
0.015192569704403412	2.0224102521324128e-25	3.6072874353296645e7	5.197453276349545e23	10.7888966754542	32.550030369478606	0.9315405473332466	0.9984481488293127
0.015253787494631079	2.057179551776083e-25	3.6072874353296645e7	5.197453276349545e23	10.7888966754542	32.550030369478606	0.9315405473332466	0.9984481488293127
0.015315251959247102	2.0924046235178323e-25	3.6072874353296645e7	5.197453276349545e23	10.7888966754542	32.550030369478606	0.9315405473332466	0.9984481488293127
0.015376964092215189	2.12808985295937e-25	3.6072874353296645e7	5.197453276349545e23	10.7888966754542	32.550030369478606	0.9315405473332466	0.9984481488293127
0.01543892489150392	2.164239663958107e-25	3.6072874353296645e7	5.197453276349545e23	10.7888966754542	32.550030369478606	0.9315405473332466	0.9984481488293127
0.015501135359103411	2.200858518947828e-25	3.6072874353296645e7	5.197453276349545e23	10.7888966754542	32.550030369478606	0.9315405473332466	0.9984481488293127
0.015563596501040989	2.2379509192614013e-25	3.6072874353296645e7	5.197453276349545e23	10.7888966754542	32.550030369478606	0.9315405473332466	0.9984481488293127
0.015626309327397985	2.275521405456726e-25	3.6072874353296645e7	5.197453276349545e23	10.7888966754542	32.550030369478606	0.9315405473332466	0.9984481488293127
0.015689274852325543	2.313574557644773e-25	3.6072874353296645e7	5.197453276349545e23	10.7888966754542	32.550030369478606	0.9315405473332466	0.9984481488293127
0.015752494094061553	2.352114995820929e-25	3.6072874353296645e7	5.197453276349545e23	10.7888966754542	32.550030369478606	0.9315405473332466	0.9984481488293127
0.01581596807494665	2.3911473801984715e-25	3.6072874353296645e7	5.197453276349545e23	10.7888966754542	32.550030369478606	0.9315405473332466	0.9984481488293127
0.015879697821440948	2.430676411545181e-25	3.6072874353296645e7	5.197453276349545e23	10.7888966754542	32.550030369478606	0.9315405473332466	0.9984481488293127
0.015943684364140828	2.4707068315227217e-25	3.6072874353296645e7	5.197453276349545e23	10.7888966754542	32.550030369478606	0.9315405473332466	0.9984481488293127
0.016007928737795152	2.5112434230284104e-25	3.6072874353296645e7	5.197453276349545e23	10.7888966754542	32.550030369478606	0.9315405473332466	0.9984481488293127
0.016072431981322532	2.5522910105404015e-25	3.6072874353296645e7	5.197453276349545e23	10.7888966754542	32.550030369478606	0.9315405473332466	0.9984481488293127
0.016137195137827572	2.593854460465035e-25	3.6072874353296645e7	5.197453276349545e23	10.7888966754542	32.550030369478606	0.9315405473332466	0.9984481488293127
0.016202219254618302	2.635938681487727e-25	3.6072874353296645e7	5.197453276349545e23	10.7888966754542	32.550030369478606	0.9315405473332466	0.9984481488293127
0.016267505383222563	2.678548624926052e-25	3.6072874353296645e7	5.197453276349545e23	10.7888966754542	32.550030369478606	0.9315405473332466	0.9984481488293127
0.016333054579405544	2.72168928508641e-25	3.6072874353296645e7	5.197453276349545e23	10.7888966754542	32.550030369478606	0.9315405473332466	0.9984481488293127
0.016398867903186332	2.765365699622933e-25	3.6072874353296645e7	5.197453276349545e23	10.7888966754542	32.550030369478606	0.9315405473332466	0.9984481488293127
0.016464946418855573	2.8095829499000355e-25	3.6072874353296645e7	5.197453276349545e23	10.7888966754542	32.550030369478606	0.9315405473332466	0.9984481488293127
