r[m]	M[Msun]	rho[g/cm^3]	P[N/m^2]	n_e[pm^-3]	n_p[pm^-3]	muF_e[MeV]	B
0.010000000000000002	2.985279770814419e-39	1.3031687323054233e9	6.808484781225391e25	386.9769757964854	391.4664836361377	3.9671513212458183	0.9940783405974657
0.010038565974376428	3.220827033846591e-26	1.3031687323054233e9	6.808484781225391e25	386.9769757964854	391.4664836361377	3.9671513212458183	0.9940783405974657
0.010077280682190855	6.529579723949903e-26	1.3031687323054233e9	6.808484781225391e25	386.9769757964854	391.4664836361377	3.9671513212458183	0.9940783405974657
0.010116144697048197	9.902726312230643e-26	1.3031687323054233e9	6.808484781225391e25	386.9769757964854	391.4664836361377	3.9671513212458183	0.9940783405974657
0.010155158594765656	1.331617578817864e-25	1.3031687323054233e9	6.808484781225391e25	386.9769757964854	391.4664836361377	3.9671513212458183	0.9940783405974657
0.010194322953381126	1.674526881264064e-25	1.3031687323054233e9	6.808484781225391e25	386.9769757964854	391.4664836361377	3.9671513212458183	0.9940783405974657
0.010233638353161637	2.0164768514814521e-25	1.3031687323054233e9	6.808484781225391e25	386.9769757964854	391.4664836361377	3.9671513212458183	0.9940783405974657
0.010273105376612243	2.3609200107502186e-25	1.3031687323054233e9	6.808484781225391e25	386.9769757964854	391.4664836361377	3.9671513212458183	0.9940783405974657
0.010312724608484317	2.7149327975041847e-25	1.3031687323054233e9	6.808484781225391e25	386.9769757964854	391.4664836361377	3.9671513212458183	0.9940783405974657
0.010352496635784513	3.076060148069634e-25	1.3031687323054233e9	6.808484781225391e25	386.9769757964854	391.4664836361377	3.9671513212458183	0.9940783405974657
0.010392422047783326	3.441660098368598e-25	1.3031687323054233e9	6.808484781225391e25	386.9769757964854	391.4664836361377	3.9671513212458183	0.9940783405974657
0.010432501436023707	3.8090283462784957e-25	1.3031687323054233e9	6.808484781225391e25	386.9769757964854	391.4664836361377	3.9671513212458183	0.9940783405974657
0.010472735394330081	4.175397242125487e-25	1.3031687323054233e9	6.808484781225391e25	386.9769757964854	391.4664836361377	3.9671513212458183	0.9940783405974657
0.010513124518817005	4.544842143891254e-25	1.3031687323054233e9	6.808484781225391e25	386.9769757964854	391.4664836361377	3.9671513212458183	0.9940783405974657
0.010553669407897892	4.925878188674881e-25	1.3031687323054233e9	6.808484781225391e25	386.9769757964854	391.4664836361377	3.9671513212458183	0.9940783405974657
0.010594370662294118	5.317247654907371e-25	1.3031687323054233e9	6.808484781225391e25	386.9769757964854	391.4664836361377	3.9671513212458183	0.9940783405974657
0.010635228885043802	5.717554379379141e-25	1.3031687323054233e9	6.808484781225391e25	386.9769757964854	391.4664836361377	3.9671513212458183	0.9940783405974657
0.010676244681510605	6.1253682426617e-25	1.3031687323054233e9	6.808484781225391e25	386.9769757964854	391.4664836361377	3.9671513212458183	0.9940783405974657
0.010717418659392965	6.539224614397169e-25	1.3031687323054233e9	6.808484781225391e25	386.9769757964854	391.4664836361377	3.9671513212458183	0.9940783405974657
0.010758751428732966	6.957623790812345e-25	1.3031687323054233e9	6.808484781225391e25	386.9769757964854	391.4664836361377	3.9671513212458183	0.9940783405974657
0.010800243601925252	7.379030424360873e-25	1.3031687323054233e9	6.808484781225391e25	386.9769757964854	391.4664836361377	3.9671513212458183	0.9940783405974657
0.010841895793726396	7.801872945395115e-25	1.3031687323054233e9	6.808484781225391e25	386.9769757964854	391.4664836361377	3.9671513212458183	0.9940783405974657
0.01088370862126367	8.22454297575406e-25	1.3031687323054233e9	6.808484781225391e25	386.9769757964854	391.4664836361377	3.9671513212458183	0.9940783405974657
0.010925682704044485	8.645394734175153e-25	1.3031687323054233e9	6.808484781225391e25	386.9769757964854	391.4664836361377	3.9671513212458183	0.9940783405974657
0.010967818663965444	9.06371926062892e-25	1.3031687323054233e9	6.808484781225391e25	386.9769757964854	391.4664836361377	3.9671513212458183	0.9940783405974657
0.011010117125321421	9.491736679204625e-25	1.3031687323054233e9	6.808484781225391e25	386.9769757964854	391.4664836361377	3.9671513212458183	0.9940783405974657
0.011052578714815083	9.932347834211482e-25	1.3031687323054233e9	6.808484781225391e25	386.9769757964854	391.4664836361377	3.9671513212458183	0.9940783405974657
0.011095204061566027	1.0383901493454728e-24	1.3031687323054233e9	6.808484781225391e25	386.9769757964854	391.4664836361377	3.9671513212458183	0.9940783405974657
0.011137993797119983	1.084470619591227e-24	1.3031687323054233e9	6.808484781225391e25	386.9769757964854	391.4664836361377	3.9671513212458183	0.9940783405974657
0.011180948555458436	1.1313029594209375e-24	1.3031687323054233e9	6.808484781225391e25	386.9769757964854	391.4664836361377	3.9671513212458183	0.9940783405974657
0.011224068973007878	1.1787097787875052e-24	1.3031687323054233e9	6.808484781225391e25	386.9769757964854	391.4664836361377	3.9671513212458183	0.9940783405974657
0.011267355688649103	1.2265094647264617e-24	1.3031687323054233e9	6.808484781225391e25	386.9769757964854	391.4664836361377	3.9671513212458183	0.9940783405974657
0.011310809343727002	1.2745161128033194e-24	1.3031687323054233e9	6.808484781225391e25	386.9769757964854	391.4664836361377	3.9671513212458183	0.9940783405974657
0.011354430582059684	1.3225394576023873e-24	1.3031687323054233e9	6.808484781225391e25	386.9769757964854	391.4664836361377	3.9671513212458183	0.9940783405974657
0.011398220049948346	1.3703848022462316e-24	1.3031687323054233e9	6.808484781225391e25	386.9769757964854	391.4664836361377	3.9671513212458183	0.9940783405974657
0.011442178396186711	1.4178863479840228e-24	1.3031687323054233e9	6.808484781225391e25	386.9769757964854	391.4664836361377	3.9671513212458183	0.9940783405974657
0.011486306272070495	1.4656931177078886e-24	1.3031687323054233e9	6.808484781225391e25	386.9769757964854	391.4664836361377	3.9671513212458183	0.9940783405974657
0.011530604331407339	1.5141298926640607e-24	1.3031687323054233e9	6.808484781225391e25	386.9769757964854	391.4664836361377	3.9671513212458183	0.9940783405974657
0.011575073230526364	1.563202546417307e-24	1.3031687323054233e9	6.808484781225391e25	386.9769757964854	391.4664836361377	3.9671513212458183	0.9940783405974657
0.011619713628287738	1.612917001798811e-24	1.3031687323054233e9	6.808484781225391e25	386.9769757964854	391.4664836361377	3.9671513212458183	0.9940783405974657
0.011664526186092733	1.6632792313021737e-24	1.3031687323054233e9	6.808484781225391e25	386.9769757964854	391.4664836361377	3.9671513212458183	0.9940783405974657
0.01170951156789338	1.7142952574820563e-24	1.3031687323054233e9	6.808484781225391e25	386.9769757964854	391.4664836361377	3.9671513212458183	0.9940783405974657
0.011754670440202165	1.7659711533559422e-24	1.3031687323054233e9	6.808484781225391e25	386.9769757964854	391.4664836361377	3.9671513212458183	0.9940783405974657
0.011800003472102182	1.8183130428095753e-24	1.3031687323054233e9	6.808484781225391e25	386.9769757964854	391.4664836361377	3.9671513212458183	0.9940783405974657
0.011845511335256914	1.871327101005069e-24	1.3031687323054233e9	6.808484781225391e25	386.9769757964854	391.4664836361377	3.9671513212458183	0.9940783405974657
0.011891194703920032	1.9250195547922665e-24	1.3031687323054233e9	6.808484781225391e25	386.9769757964854	391.4664836361377	3.9671513212458183	0.9940783405974657
0.011937054254945728	1.9793966831238508e-24	1.3031687323054233e9	6.808484781225391e25	386.9769757964854	391.4664836361377	3.9671513212458183	0.9940783405974657
0.011983090667798353	2.0344648174729137e-24	1.3031687323054233e9	6.808484781225391e25	386.9769757964854	391.4664836361377	3.9671513212458183	0.9940783405974657
0.012029304624562824	2.0902303422546457e-24	1.3031687323054233e9	6.808484781225391e25	386.9769757964854	391.4664836361377	3.9671513212458183	0.9940783405974657
0.012075696809954583	2.1466996952507702e-24	1.3031687323054233e9	6.808484781225391e25	386.9769757964854	391.4664836361377	3.9671513212458183	0.9940783405974657
0.012122267911329605	2.2038793680373364e-24	1.3031687323054233e9	6.808484781225391e25	386.9769757964854	391.4664836361377	3.9671513212458183	0.9940783405974657
0.012169018618694856	2.2617759064163725e-24	1.3031687323054233e9	6.808484781225391e25	386.9769757964854	391.4664836361377	3.9671513212458183	0.9940783405974657
0.01221594962471839	2.3203959108504275e-24	1.3031687323054233e9	6.808484781225391e25	386.9769757964854	391.4664836361377	3.9671513212458183	0.9940783405974657
0.01226306162473945	2.379746036900526e-24	1.3031687323054233e9	6.808484781225391e25	386.9769757964854	391.4664836361377	3.9671513212458183	0.9940783405974657
0.012310355316779074	2.439832995668114e-24	1.3031687323054233e9	6.808484781225391e25	386.9769757964854	391.4664836361377	3.9671513212458183	0.9940783405974657
0.012357831401550284	2.5006635542399165e-24	1.3031687323054233e9	6.808484781225391e25	386.9769757964854	391.4664836361377	3.9671513212458183	0.9940783405974657
0.012405490582468322	2.56224453613631e-24	1.3031687323054233e9	6.808484781225391e25	386.9769757964854	391.4664836361377	3.9671513212458183	0.9940783405974657
0.01245333356566137	2.6245828217637907e-24	1.3031687323054233e9	6.808484781225391e25	386.9769757964854	391.4664836361377	3.9671513212458183	0.9940783405974657
0.01250136105998086	2.6876853488703954e-24	1.3031687323054233e9	6.808484781225391e25	386.9769757964854	391.4664836361377	3.9671513212458183	0.9940783405974657
0.012549573777011826	2.7515591130047458e-24	1.3031687323054233e9	6.808484781225391e25	386.9769757964854	391.4664836361377	3.9671513212458183	0.9940783405974657
0.012597972431083808	2.816211167979335e-24	1.3031687323054233e9	6.808484781225391e25	386.9769757964854	391.4664836361377	3.9671513212458183	0.9940783405974657
0.01264655773928102	2.8816486263364565e-24	1.3031687323054233e9	6.808484781225391e25	386.9769757964854	391.4664836361377	3.9671513212458183	0.9940783405974657
0.01269533042145333	2.947878659818814e-24	1.3031687323054233e9	6.808484781225391e25	386.9769757964854	391.4664836361377	3.9671513212458183	0.9940783405974657
0.012744291200226784	3.0149084998431572e-24	1.3031687323054233e9	6.808484781225391e25	386.9769757964854	391.4664836361377	3.9671513212458183	0.9940783405974657
0.012793440801014152	3.0827454379776207e-24	1.3031687323054233e9	6.808484781225391e25	386.9769757964854	391.4664836361377	3.9671513212458183	0.9940783405974657
0.012842779952025974	3.1513968264234528e-24	1.3031687323054233e9	6.808484781225391e25	386.9769757964854	391.4664836361377	3.9671513212458183	0.9940783405974657
0.012892309384281219	3.220870078499918e-24	1.3031687323054233e9	6.808484781225391e25	386.9769757964854	391.4664836361377	3.9671513212458183	0.9940783405974657
0.012942029831617935	3.2911726691329617e-24	1.3031687323054233e9	6.808484781225391e25	386.9769757964854	391.4664836361377	3.9671513212458183	0.9940783405974657
0.012991942030704447	3.362312135348403e-24	1.3031687323054233e9	6.808484781225391e25	386.9769757964854	391.4664836361377	3.9671513212458183	0.9940783405974657
0.013042046721050115	3.434296076768343e-24	1.3031687323054233e9	6.808484781225391e25	386.9769757964854	391.4664836361377	3.9671513212458183	0.9940783405974657
0.013092344645016133	3.507132156111462e-24	1.3031687323054233e9	6.808484781225391e25	386.9769757964854	391.4664836361377	3.9671513212458183	0.9940783405974657
0.01314283654782689	3.580828099697992e-24	1.3031687323054233e9	6.808484781225391e25	386.9769757964854	391.4664836361377	3.9671513212458183	0.9940783405974657
0.013193523177580595	3.655391697957537e-24	1.3031687323054233e9	6.808484781225391e25	386.9769757964854	391.4664836361377	3.9671513212458183	0.9940783405974657
0.01324440528526073	3.730830805942017e-24	1.3031687323054233e9	6.808484781225391e25	386.9769757964854	391.4664836361377	3.9671513212458183	0.9940783405974657
0.013295483624747022	3.807153343841891e-24	1.3031687323054233e9	6.808484781225391e25	386.9769757964854	391.4664836361377	3.9671513212458183	0.9940783405974657
0.013346758952826441	3.884367297506399e-24	1.3031687323054233e9	6.808484781225391e25	386.9769757964854	391.4664836361377	3.9671513212458183	0.9940783405974657
0.013398232029204744	3.9624807189686134e-24	1.3031687323054233e9	6.808484781225391e25	386.9769757964854	391.4664836361377	3.9671513212458183	0.9940783405974657
0.013449903616517572	4.041501726973951e-24	1.3031687323054233e9	6.808484781225391e25	386.9769757964854	391.4664836361377	3.9671513212458183	0.9940783405974657
0.013501774480341573	4.121438507512722e-24	1.3031687323054233e9	6.808484781225391e25	386.9769757964854	391.4664836361377	3.9671513212458183	0.9940783405974657
0.013553845389206088	4.202299314357706e-24	1.3031687323054233e9	6.808484781225391e25	386.9769757964854	391.4664836361377	3.9671513212458183	0.9940783405974657
0.013606117114604362	4.284092469605156e-24	1.3031687323054233e9	6.808484781225391e25	386.9769757964854	391.4664836361377	3.9671513212458183	0.9940783405974657
0.013658590431004808	4.366826364220034e-24	1.3031687323054233e9	6.808484781225391e25	386.9769757964854	391.4664836361377	3.9671513212458183	0.9940783405974657
0.013711266115862831	4.4505094585863425e-24	1.3031687323054233e9	6.808484781225391e25	386.9769757964854	391.4664836361377	3.9671513212458183	0.9940783405974657
0.01376414494963216	4.535150283060959e-24	1.3031687323054233e9	6.808484781225391e25	386.9769757964854	391.4664836361377	3.9671513212458183	0.9940783405974657
0.013817227715776254	4.620757438531829e-24	1.3031687323054233e9	6.808484781225391e25	386.9769757964854	391.4664836361377	3.9671513212458183	0.9940783405974657
0.013870515200780299	4.707339596981434e-24	1.3031687323054233e9	6.808484781225391e25	386.9769757964854	391.4664836361377	3.9671513212458183	0.9940783405974657
0.01392400819416241	4.7949055020533325e-24	1.3031687323054233e9	6.808484781225391e25	386.9769757964854	391.4664836361377	3.9671513212458183	0.9940783405974657
0.013977707488485732	4.883463969624518e-24	1.3031687323054233e9	6.808484781225391e25	386.9769757964854	391.4664836361377	3.9671513212458183	0.9940783405974657
0.014031613879370002	4.973023888381335e-24	1.3031687323054233e9	6.808484781225391e25	386.9769757964854	391.4664836361377	3.9671513212458183	0.9940783405974657
0.01408572816550317	5.063594220399921e-24	1.3031687323054228e9	6.808484781225387e25	386.97697579648525	391.46648363613747	3.967151321245818	0.9940783405974657
0.01414005114865358	5.1551840017320594e-24	1.3031687323054228e9	6.808484781225387e25	386.97697579648525	391.46648363613747	3.967151321245818	0.9940783405974657
0.014194583633681672	5.247802342994776e-24	1.3031687323054228e9	6.808484781225387e25	386.97697579648525	391.46648363613747	3.967151321245818	0.9940783405974657
0.014249326428551732	5.3414584299645224e-24	1.3031687323054228e9	6.808484781225387e25	386.97697579648525	391.46648363613747	3.967151321245818	0.9940783405974657
0.014304280344344217	5.4361615241769486e-24	1.3031687323054228e9	6.808484781225387e25	386.97697579648525	391.46648363613747	3.967151321245818	0.9940783405974657
0.014359446195267595	5.531920963530493e-24	1.3031687323054228e9	6.808484781225387e25	386.97697579648525	391.46648363613747	3.967151321245818	0.9940783405974657
0.014414824798670234	5.628746162894658e-24	1.3031687323054228e9	6.808484781225387e25	386.97697579648525	391.46648363613747	3.967151321245818	0.9940783405974657
0.01447041697505291	5.7266466147240895e-24	1.3031687323054228e9	6.808484781225387e25	386.97697579648525	391.46648363613747	3.967151321245818	0.9940783405974657
0.01452622354808052	5.825631889676004e-24	1.3031687323054228e9	6.808484781225387e25	386.97697579648525	391.46648363613747	3.967151321245818	0.9940783405974657
0.014582245344594671	5.925711637233893e-24	1.3031687323054228e9	6.808484781225387e25	386.97697579648525	391.46648363613747	3.967151321245818	0.9940783405974657
0.01463848319462577	6.026895586335183e-24	1.3031687323054228e9	6.808484781225387e25	386.97697579648525	391.46648363613747	3.967151321245818	0.9940783405974657
0.014694937931405139	6.1291935460037515e-24	1.3031687323054228e9	6.808484781225387e25	386.97697579648525	391.46648363613747	3.967151321245818	0.9940783405974657
0.014751610391377713	6.232615405988373e-24	1.3031687323054228e9	6.808484781225387e25	386.97697579648525	391.46648363613747	3.967151321245818	0.9940783405974657
0.014808501414214264	6.337171137405249e-24	1.3031687323054228e9	6.808484781225387e25	386.97697579648525	391.46648363613747	3.967151321245818	0.9940783405974657
0.01486561184282365	6.442870793385503e-24	1.3031687323054228e9	6.808484781225387e25	386.97697579648525	391.46648363613747	3.967151321245818	0.9940783405974657
0.014922942523365672	6.549724509728806e-24	1.3031687323054228e9	6.808484781225387e25	386.97697579648525	391.46648363613747	3.967151321245818	0.9940783405974657
0.014980494305263435	6.657742505561097e-24	1.3031687323054228e9	6.808484781225387e25	386.97697579648525	391.46648363613747	3.967151321245818	0.9940783405974657
0.015038268041215733	6.76693508399745e-24	1.3031687323054228e9	6.808484781225387e25	386.97697579648525	391.46648363613747	3.967151321245818	0.9940783405974657
0.015096264587210069	6.8773126328112e-24	1.3031687323054228e9	6.808484781225387e25	386.97697579648525	391.46648363613747	3.967151321245818	0.9940783405974657
0.01515448480253514	6.988885625107238e-24	1.3031687323054228e9	6.808484781225387e25	386.97697579648525	391.46648363613747	3.967151321245818	0.9940783405974657
0.015212929549793391	7.10166462000061e-24	1.3031687323054228e9	6.808484781225387e25	386.97697579648525	391.46648363613747	3.967151321245818	0.9940783405974657
0.015271599694914224	7.215660263301591e-24	1.3031687323054228e9	6.808484781225387e25	386.97697579648525	391.46648363613747	3.967151321245818	0.9940783405974657
0.015330496107166334	7.330883288204384e-24	1.3031687323054228e9	6.808484781225387e25	386.97697579648525	391.46648363613747	3.967151321245818	0.9940783405974657
0.015389619659171024	7.447344515982965e-24	1.3031687323054228e9	6.808484781225387e25	386.97697579648525	391.46648363613747	3.967151321245818	0.9940783405974657
0.015448971226914939	7.565054856691205e-24	1.3031687323054228e9	6.808484781225387e25	386.97697579648525	391.46648363613747	3.967151321245818	0.9940783405974657
0.015508551689762872	7.684025309868483e-24	1.3031687323054228e9	6.808484781225387e25	386.97697579648525	391.46648363613747	3.967151321245818	0.9940783405974657
0.015568361930471161	7.804266965251919e-24	1.3031687323054228e9	6.808484781225387e25	386.97697579648525	391.46648363613747	3.967151321245818	0.9940783405974657
0.01562840283520057	7.925791003493067e-24	1.3031687323054228e9	6.808484781225387e25	386.97697579648525	391.46648363613747	3.967151321245818	0.9940783405974657
0.015688675293529252	8.048608696880242e-24	1.3031687323054228e9	6.808484781225387e25	386.97697579648525	391.46648363613747	3.967151321245818	0.9940783405974657
0.015749180198466287	8.172731410067642e-24	1.3031687323054228e9	6.808484781225387e25	386.97697579648525	391.46648363613747	3.967151321245818	0.9940783405974657
0.01580991844646473	8.29817060080901e-24	1.3031687323054228e9	6.808484781225387e25	386.97697579648525	391.46648363613747	3.967151321245818	0.9940783405974657
0.0158708909374347	8.424937820697076e-24	1.3031687323054228e9	6.808484781225387e25	386.97697579648525	391.46648363613747	3.967151321245818	0.9940783405974657
0.015932098574757185	8.553044715910087e-24	1.3031687323054228e9	6.808484781225387e25	386.97697579648525	391.46648363613747	3.967151321245818	0.9940783405974657
0.01599354226529686	8.682503027962172e-24	1.3031687323054228e9	6.808484781225387e25	386.97697579648525	391.46648363613747	3.967151321245818	0.9940783405974657
0.016055222919416034	8.813324594461656e-24	1.3031687323054228e9	6.808484781225387e25	386.97697579648525	391.46648363613747	3.967151321245818	0.9940783405974657
0.0161171414509879	8.945521349873898e-24	1.3031687323054228e9	6.808484781225387e25	386.97697579648525	391.46648363613747	3.967151321245818	0.9940783405974657
