r[m]	M[Msun]	rho[g/cm^3]	P[N/m^2]	n_e[pm^-3]	n_p[pm^-3]	muF_e[MeV]	B
0.009999999999999981	-3.8190065536544816e-39	3.30929298925516e8	1.07374488374229e25	98.14061077691593	74.66708102425032	2.351028953054608	0.9963677292788851
0.010039256688013814	8.334286078724032e-27	3.30929298925516e8	1.07374488374229e25	98.14061077691593	74.66708102425032	2.351028953054608	0.9963677292788851
0.010078667484783027	1.693399924894594e-26	3.30929298925516e8	1.07374488374229e25	98.14061077691593	74.66708102425032	2.351028953054608	0.9963677292788851
0.010118232995287515	2.5768897657061987e-26	3.30929298925516e8	1.07374488374229e25	98.14061077691593	74.66708102425032	2.351028953054608	0.9963677292788851
0.010157953826882242	3.480798310531306e-26	3.30929298925516e8	1.07374488374229e25	98.14061077691593	74.66708102425032	2.351028953054608	0.9963677292788851
0.010197830589306326	4.401948843745116e-26	3.30929298925516e8	1.07374488374229e25	98.14061077691593	74.66708102425032	2.351028953054608	0.9963677292788851
0.010237863894692558	5.337086474436655e-26	3.30929298925516e8	1.07374488374229e25	98.14061077691593	74.66708102425032	2.351028953054608	0.9963677292788851
0.010278054357576718	6.282876838715898e-26	3.30929298925516e8	1.07374488374229e25	98.14061077691593	74.66708102425032	2.351028953054608	0.9963677292788851
0.010318402594907178	7.235904783534025e-26	3.30929298925516e8	1.07374488374229e25	98.14061077691593	74.66708102425032	2.351028953054608	0.9963677292788851
0.010358909226054118	8.192673031758121e-26	3.30929298925516e8	1.07374488374229e25	98.14061077691593	74.66708102425032	2.351028953054608	0.9963677292788851
0.0103995748728192	9.149600828272041e-26	3.30929298925516e8	1.07374488374229e25	98.14061077691593	74.66708102425032	2.351028953054608	0.9963677292788851
0.010440400159445074	1.0103022566837952e-25	3.30929298925516e8	1.07374488374229e25	98.14061077691593	74.66708102425032	2.351028953054608	0.9963677292788851
0.010481385712624922	1.1049369562818795e-25	3.30929298925516e8	1.07374488374229e25	98.14061077691593	74.66708102425032	2.351028953054608	0.9963677292788851
0.010522532161512239	1.20108738065149e-25	3.30929298925516e8	1.07374488374229e25	98.14061077691593	74.66708102425032	2.351028953054608	0.9963677292788851
0.010563840137730238	1.300237270866119e-25	3.30929298925516e8	1.07374488374229e25	98.14061077691593	74.66708102425032	2.351028953054608	0.9963677292788851
0.010605310275381728	1.4020199330733921e-25	3.30929298925516e8	1.07374488374229e25	98.14061077691593	74.66708102425032	2.351028953054608	0.9963677292788851
0.01064694321105874	1.5060595379584243e-25	3.30929298925516e8	1.07374488374229e25	98.14061077691593	74.66708102425032	2.351028953054608	0.9963677292788851
0.010688739583852492	1.6119709685497024e-25	3.30929298925516e8	1.07374488374229e25	98.14061077691593	74.66708102425032	2.351028953054608	0.9963677292788851
0.010730700035362932	1.7193596658516524e-25	3.30929298925516e8	1.07374488374229e25	98.14061077691593	74.66708102425032	2.351028953054608	0.9963677292788851
0.010772825209708759	1.827821472277252e-25	3.30929298925516e8	1.07374488374229e25	98.14061077691593	74.66708102425032	2.351028953054608	0.9963677292788851
0.010815115753537267	1.9369424728501706e-25	3.30929298925516e8	1.07374488374229e25	98.14061077691593	74.66708102425032	2.351028953054608	0.9963677292788851
0.010857572316034233	2.046298834147377e-25	3.30929298925516e8	1.07374488374229e25	98.14061077691593	74.66708102425032	2.351028953054608	0.9963677292788851
0.01090019554893405	2.1554566409530434e-25	3.30929298925516e8	1.07374488374229e25	98.14061077691593	74.66708102425032	2.351028953054608	0.9963677292788851
0.01094298610652948	2.2639717305917844e-25	3.30929298925516e8	1.07374488374229e25	98.14061077691593	74.66708102425032	2.351028953054608	0.9963677292788851
0.010985944645681853	2.372717976371565e-25	3.30929298925516e8	1.07374488374229e25	98.14061077691593	74.66708102425032	2.351028953054608	0.9963677292788851
0.011029071825831084	2.485055965114438e-25	3.30929298925516e8	1.07374488374229e25	98.14061077691593	74.66708102425032	2.351028953054608	0.9963677292788851
0.011072368309005964	2.6009982007474077e-25	3.30929298925516e8	1.07374488374229e25	98.14061077691593	74.66708102425032	2.351028953054608	0.9963677292788851
0.011115834759834053	2.720338579087111e-25	3.30929298925516e8	1.07374488374229e25	98.14061077691593	74.66708102425032	2.351028953054608	0.9963677292788851
0.011159471845552065	2.8428655558398764e-25	3.30929298925516e8	1.07374488374229e25	98.14061077691593	74.66708102425032	2.351028953054608	0.9963677292788851
0.011203280236016019	2.9683620545464893e-25	3.30929298925516e8	1.07374488374229e25	98.14061077691593	74.66708102425032	2.351028953054608	0.9963677292788851
0.0112472606037117	3.0966053732049615e-25	3.30929298925516e8	1.07374488374229e25	98.14061077691593	74.66708102425032	2.351028953054608	0.9963677292788851
0.011291413623764719	3.2273670895518648e-25	3.30929298925516e8	1.07374488374229e25	98.14061077691593	74.66708102425032	2.351028953054608	0.9963677292788851
0.011335739973951046	3.36041296498683e-25	3.30929298925516e8	1.07374488374229e25	98.14061077691593	74.66708102425032	2.351028953054608	0.9963677292788851
0.01138024033470738	3.495502847120429e-25	3.30929298925516e8	1.07374488374229e25	98.14061077691593	74.66708102425032	2.351028953054608	0.9963677292788851
0.011424915389141536	3.6323905709278124e-25	3.30929298925516e8	1.07374488374229e25	98.14061077691593	74.66708102425032	2.351028953054608	0.9963677292788851
0.011469765823043133	3.7708238584903853e-25	3.30929298925516e8	1.07374488374229e25	98.14061077691593	74.66708102425032	2.351028953054608	0.9963677292788851
0.011514792324893827	3.9105442173046265e-25	3.30929298925516e8	1.07374488374229e25	98.14061077691593	74.66708102425032	2.351028953054608	0.9963677292788851
0.01155999558587807	4.051286837142071e-25	3.30929298925516e8	1.07374488374229e25	98.14061077691593	74.66708102425032	2.351028953054608	0.9963677292788851
0.011605376299893631	4.192780485438979e-25	3.30929298925516e8	1.07374488374229e25	98.14061077691593	74.66708102425032	2.351028953054608	0.9963677292788851
0.011650935163562437	4.334747401198015e-25	3.30929298925516e8	1.07374488374229e25	98.14061077691593	74.66708102425032	2.351028953054608	0.9963677292788851
0.011696672876240972	4.476903187379865e-25	3.30929298925516e8	1.07374488374229e25	98.14061077691593	74.66708102425032	2.351028953054608	0.9963677292788851
0.011742590140031218	4.618956701768048e-25	3.30929298925516e8	1.07374488374229e25	98.14061077691593	74.66708102425032	2.351028953054608	0.9963677292788851
0.011788687659791368	4.760609946284232e-25	3.30929298925516e8	1.07374488374229e25	98.14061077691593	74.66708102425032	2.351028953054608	0.9963677292788851
0.011834966143146617	4.90155795473477e-25	3.30929298925516e8	1.07374488374229e25	98.14061077691593	74.66708102425032	2.351028953054608	0.9963677292788851
0.011881426300500193	5.0414886789681265e-25	3.30929298925516e8	1.07374488374229e25	98.14061077691593	74.66708102425032	2.351028953054608	0.9963677292788851
0.011928068845044002	5.180541203568746e-25	3.30929298925516e8	1.07374488374229e25	98.14061077691593	74.66708102425032	2.351028953054608	0.9963677292788851
0.011974894492769741	5.3232490911124615e-25	3.30929298925516e8	1.07374488374229e25	98.14061077691593	74.66708102425032	2.351028953054608	0.9963677292788851
0.012021903962479817	5.470626061080396e-25	3.30929298925516e8	1.07374488374229e25	98.14061077691593	74.66708102425032	2.351028953054608	0.9963677292788851
0.012069097975798549	5.622382780124869e-25	3.30929298925516e8	1.07374488374229e25	98.14061077691593	74.66708102425032	2.351028953054608	0.9963677292788851
0.01211647725718298	5.778222339010405e-25	3.30929298925516e8	1.07374488374229e25	98.14061077691593	74.66708102425032	2.351028953054608	0.9963677292788851
0.012164042533934175	5.937840124684738e-25	3.30929298925516e8	1.07374488374229e25	98.14061077691593	74.66708102425032	2.351028953054608	0.9963677292788851
0.012211794536208338	6.100923690512612e-25	3.30929298925516e8	1.07374488374229e25	98.14061077691593	74.66708102425032	2.351028953054608	0.9963677292788851
0.012259733997027983	6.267152624648589e-25	3.30929298925516e8	1.07374488374229e25	98.14061077691593	74.66708102425032	2.351028953054608	0.9963677292788851
0.012307861652293372	6.436198416525121e-25	3.30929298925516e8	1.07374488374229e25	98.14061077691593	74.66708102425032	2.351028953054608	0.9963677292788851
0.012356178240793525	6.607724321428447e-25	3.30929298925516e8	1.07374488374229e25	98.14061077691593	74.66708102425032	2.351028953054608	0.9963677292788851
0.012404684504217736	6.781385223140219e-25	3.30929298925516e8	1.07374488374229e25	98.14061077691593	74.66708102425032	2.351028953054608	0.9963677292788851
0.012453381187166896	6.956827494616881e-25	3.30929298925516e8	1.07374488374229e25	98.14061077691593	74.66708102425032	2.351028953054608	0.9963677292788851
0.012502269037165092	7.133688856682491e-25	3.30929298925516e8	1.07374488374229e25	98.14061077691593	74.66708102425032	2.351028953054608	0.9963677292788851
0.01255134880467079	7.311598234706274e-25	3.30929298925516e8	1.07374488374229e25	98.14061077691593	74.66708102425032	2.351028953054608	0.9963677292788851
0.012600621243088564	7.49017561324169e-25	3.30929298925516e8	1.07374488374229e25	98.14061077691593	74.66708102425032	2.351028953054608	0.9963677292788851
0.012650087108780605	7.669031888597429e-25	3.30929298925516e8	1.07374488374229e25	98.14061077691593	74.66708102425032	2.351028953054608	0.9963677292788851
0.012699747161078273	7.847768719313942e-25	3.30929298925516e8	1.07374488374229e25	98.14061077691593	74.66708102425032	2.351028953054608	0.9963677292788851
0.012749602162293974	8.025978374518901e-25	3.30929298925516e8	1.07374488374229e25	98.14061077691593	74.66708102425032	2.351028953054608	0.9963677292788851
0.01279965287773254	8.203243580130714e-25	3.30929298925516e8	1.07374488374229e25	98.14061077691593	74.66708102425032	2.351028953054608	0.9963677292788851
0.01284990007570319	8.379137362885591e-25	3.30929298925516e8	1.07374488374229e25	98.14061077691593	74.66708102425032	2.351028953054608	0.9963677292788851
0.01290034452753122	8.554291026351151e-25	3.30929298925516e8	1.07374488374229e25	98.14061077691593	74.66708102425032	2.351028953054608	0.9963677292788851
0.012950987007570042	8.731792135023717e-25	3.30929298925516e8	1.07374488374229e25	98.14061077691593	74.66708102425032	2.351028953054608	0.9963677292788851
0.013001828293212782	8.911893268144454e-25	3.30929298925516e8	1.07374488374229e25	98.14061077691593	74.66708102425032	2.351028953054608	0.9963677292788851
0.013052869164904389	9.094619604653125e-25	3.30929298925516e8	1.07374488374229e25	98.14061077691593	74.66708102425032	2.351028953054608	0.9963677292788851
0.013104110406153592	9.279996540115461e-25	3.30929298925516e8	1.07374488374229e25	98.14061077691593	74.66708102425032	2.351028953054608	0.9963677292788851
0.013155552803544857	9.468049688499944e-25	3.30929298925516e8	1.07374488374229e25	98.14061077691593	74.66708102425032	2.351028953054608	0.9963677292788851
0.013207197146750683	9.658804883969787e-25	3.30929298925516e8	1.07374488374229e25	98.14061077691593	74.66708102425032	2.351028953054608	0.9963677292788851
0.0132590442285434	9.852288182687367e-25	3.30929298925516e8	1.07374488374229e25	98.14061077691593	74.66708102425032	2.351028953054608	0.9963677292788851
0.013311094844807555	1.0048525864635105e-24	3.30929298925516e8	1.07374488374229e25	98.14061077691593	74.66708102425032	2.351028953054608	0.9963677292788851
0.013363349794552015	1.0247544435449758e-24	3.30929298925516e8	1.07374488374229e25	98.14061077691593	74.66708102425032	2.351028953054608	0.9963677292788851
0.013415809879922459	1.0449370628272715e-24	3.30929298925516e8	1.07374488374229e25	98.14061077691593	74.66708102425032	2.351028953054608	0.9963677292788851
0.01346847590621336	1.0654031405612951e-24	3.30929298925516e8	1.07374488374229e25	98.14061077691593	74.66708102425032	2.351028953054608	0.9963677292788851
0.013521348681880565	1.0861553961227195e-24	3.30929298925516e8	1.07374488374229e25	98.14061077691593	74.66708102425032	2.351028953054608	0.9963677292788851
0.013574429018553649	1.1071965722013882e-24	3.30929298925516e8	1.07374488374229e25	98.14061077691593	74.66708102425032	2.351028953054608	0.9963677292788851
0.013627717731048318	1.1285294349922542e-24	3.30929298925516e8	1.07374488374229e25	98.14061077691593	74.66708102425032	2.351028953054608	0.9963677292788851
0.013681215637379155	1.1501567743879485e-24	3.30929298925516e8	1.07374488374229e25	98.14061077691593	74.66708102425032	2.351028953054608	0.9963677292788851
0.01373492355877181	1.17208140417267e-24	3.30929298925516e8	1.07374488374229e25	98.14061077691593	74.66708102425032	2.351028953054608	0.9963677292788851
0.013788842319675865	1.1943061622178552e-24	3.30929298925516e8	1.07374488374229e25	98.14061077691593	74.66708102425032	2.351028953054608	0.9963677292788851
0.013842972747777352	1.216833910679289e-24	3.30929298925516e8	1.07374488374229e25	98.14061077691593	74.66708102425032	2.351028953054608	0.9963677292788851
0.0138973156740117	1.2396675361959251e-24	3.30929298925516e8	1.07374488374229e25	98.14061077691593	74.66708102425032	2.351028953054608	0.9963677292788851
0.013951871932576142	1.2628099500900728e-24	3.30929298925516e8	1.07374488374229e25	98.14061077691593	74.66708102425032	2.351028953054608	0.9963677292788851
0.014006642360942753	1.286264088569421e-24	3.30929298925516e8	1.07374488374229e25	98.14061077691593	74.66708102425032	2.351028953054608	0.9963677292788851
0.01406162779987118	1.3100329129305368e-24	3.30929298925516e8	1.07374488374229e25	98.14061077691593	74.66708102425032	2.351028953054608	0.9963677292788851
0.0141168290934218	1.334119409764157e-24	3.30929298925516e8	1.07374488374229e25	98.14061077691593	74.66708102425032	2.351028953054608	0.9963677292788851
0.014172247088968304	1.3585265911618554e-24	3.30929298925516e8	1.07374488374229e25	98.14061077691593	74.66708102425032	2.351028953054608	0.9963677292788851
0.014227882637210962	1.3832574949246313e-24	3.30929298925516e8	1.07374488374229e25	98.14061077691593	74.66708102425032	2.351028953054608	0.9963677292788851
0.014283736592189605	1.4083151847730423e-24	3.30929298925516e8	1.07374488374229e25	98.14061077691593	74.66708102425032	2.351028953054608	0.9963677292788851
0.014339809811296681	1.433702750559016e-24	3.30929298925516e8	1.07374488374229e25	98.14061077691593	74.66708102425032	2.351028953054608	0.9963677292788851
0.014396103155290656	1.4594233084794905e-24	3.30929298925516e8	1.07374488374229e25	98.14061077691593	74.66708102425032	2.351028953054608	0.9963677292788851
0.014452617488308877	1.485480001291514e-24	3.30929298925516e8	1.07374488374229e25	98.14061077691593	74.66708102425032	2.351028953054608	0.9963677292788851
0.014509353677881058	1.5118759985293114e-24	3.30929298925516e8	1.07374488374229e25	98.14061077691593	74.66708102425032	2.351028953054608	0.9963677292788851
0.01456631259494249	1.5386144967229505e-24	3.30929298925516e8	1.07374488374229e25	98.14061077691593	74.66708102425032	2.351028953054608	0.9963677292788851
0.014623495113847652	1.5656987196189172e-24	3.30929298925516e8	1.07374488374229e25	98.14061077691593	74.66708102425032	2.351028953054608	0.9963677292788851
0.014680902112383267	1.5931319184021775e-24	3.30929298925516e8	1.07374488374229e25	98.14061077691593	74.66708102425032	2.351028953054608	0.9963677292788851
0.01473853447178201	1.620917371920293e-24	3.30929298925516e8	1.07374488374229e25	98.14061077691593	74.66708102425032	2.351028953054608	0.9963677292788851
0.014796393076735997	1.6490583869092142e-24	3.30929298925516e8	1.07374488374229e25	98.14061077691593	74.66708102425032	2.351028953054608	0.9963677292788851
0.014854478815410282	1.677558298220844e-24	3.30929298925516e8	1.07374488374229e25	98.14061077691593	74.66708102425032	2.351028953054608	0.9963677292788851
0.014912792579456746	1.7064204690526048e-24	3.30929298925516e8	1.07374488374229e25	98.14061077691593	74.66708102425032	2.351028953054608	0.9963677292788851
0.01497133526402742	1.7356482911785355e-24	3.30929298925516e8	1.07374488374229e25	98.14061077691593	74.66708102425032	2.351028953054608	0.9963677292788851
0.015030107767788462	1.7652451851825252e-24	3.30929298925516e8	1.07374488374229e25	98.14061077691593	74.66708102425032	2.351028953054608	0.9963677292788851
0.015089110992933837	1.7952146006932525e-24	3.30929298925516e8	1.07374488374229e25	98.14061077691593	74.66708102425032	2.351028953054608	0.9963677292788851
0.015148345845199406	1.8255600166211807e-24	3.30929298925516e8	1.07374488374229e25	98.14061077691593	74.66708102425032	2.351028953054608	0.9963677292788851
0.015207813233876467	1.856284941397141e-24	3.30929298925516e8	1.07374488374229e25	98.14061077691593	74.66708102425032	2.351028953054608	0.9963677292788851
0.015267514071825961	1.887392913213139e-24	3.30929298925516e8	1.07374488374229e25	98.14061077691593	74.66708102425032	2.351028953054608	0.9963677292788851
0.015327449275492408	1.9188875002649276e-24	3.30929298925516e8	1.07374488374229e25	98.14061077691593	74.66708102425032	2.351028953054608	0.9963677292788851
0.015387619764917931	1.950772300996529e-24	3.30929298925516e8	1.07374488374229e25	98.14061077691593	74.66708102425032	2.351028953054608	0.9963677292788851
0.015448026463756618	1.983050944346867e-24	3.30929298925516e8	1.07374488374229e25	98.14061077691593	74.66708102425032	2.351028953054608	0.9963677292788851
0.015508670299288329	2.015727089998052e-24	3.30929298925516e8	1.07374488374229e25	98.14061077691593	74.66708102425032	2.351028953054608	0.9963677292788851
0.015569552202433187	2.048804428625986e-24	3.30929298925516e8	1.07374488374229e25	98.14061077691593	74.66708102425032	2.351028953054608	0.9963677292788851
0.01563067310776572	2.0822866821527518e-24	3.30929298925516e8	1.07374488374229e25	98.14061077691593	74.66708102425032	2.351028953054608	0.9963677292788851
0.0156920339535295	2.1161776040012635e-24	3.30929298925516e8	1.07374488374229e25	98.14061077691593	74.66708102425032	2.351028953054608	0.9963677292788851
0.015753635681651116	2.1504809793515688e-24	3.30929298925516e8	1.07374488374229e25	98.14061077691593	74.66708102425032	2.351028953054608	0.9963677292788851
0.01581547923775493	2.1852006253995812e-24	3.30929298925516e8	1.07374488374229e25	98.14061077691593	74.66708102425032	2.351028953054608	0.9963677292788851
0.01587756557117751	2.2203403916176882e-24	3.30929298925516e8	1.07374488374229e25	98.14061077691593	74.66708102425032	2.351028953054608	0.9963677292788851
0.015939895634982135	2.2559041600174496e-24	3.30929298925516e8	1.07374488374229e25	98.14061077691593	74.66708102425032	2.351028953054608	0.9963677292788851
0.01600247038597369	2.291895845414577e-24	3.30929298925516e8	1.07374488374229e25	98.14061077691593	74.66708102425032	2.351028953054608	0.9963677292788851
0.016065290784712968	2.328319395695681e-24	3.30929298925516e8	1.07374488374229e25	98.14061077691593	74.66708102425032	2.351028953054608	0.9963677292788851
0.016128357795531664	2.3651787920874803e-24	3.30929298925516e8	1.07374488374229e25	98.14061077691593	74.66708102425032	2.351028953054608	0.9963677292788851
0.016191672386547062	2.4024780494279964e-24	3.30929298925516e8	1.07374488374229e25	98.14061077691593	74.66708102425032	2.351028953054608	0.9963677292788851
0.01625523552967715	2.440221216440099e-24	3.30929298925516e8	1.07374488374229e25	98.14061077691593	74.66708102425032	2.351028953054608	0.9963677292788851
0.016319048200655138	2.4784123760068736e-24	3.30929298925516e8	1.07374488374229e25	98.14061077691593	74.66708102425032	2.351028953054608	0.9963677292788851
0.01638311137904472	2.5170556454495842e-24	3.30929298925516e8	1.07374488374229e25	98.14061077691593	74.66708102425032	2.351028953054608	0.9963677292788851
0.016447426048255026	2.556155176807637e-24	3.30929298925516e8	1.07374488374229e25	98.14061077691593	74.66708102425032	2.351028953054608	0.9963677292788851
