r[m]	M[Msun]	rho[g/cm^3]	P[N/m^2]	n_e[pm^-3]	n_p[pm^-3]	muF_e[MeV]	B
0.010000000000000014	2.407049905296311e-39	2.6091401458393222e8	7.800848044826564e24	77.50970593612416	78.43415680508397	2.1416888398935616	0.9966627058706442
0.010039376404028551	6.591322819358121e-27	2.6091401458393222e8	7.800848044826564e24	77.50970593612416	78.43415680508397	2.1416888398935616	0.9966627058706442
0.010078907858176469	1.3393143577147953e-26	2.6091401458393222e8	7.800848044826564e24	77.50970593612416	78.43415680508397	2.1416888398935616	0.9966627058706442
0.010118594972975464	2.038141851004362e-26	2.6091401458393222e8	7.800848044826564e24	77.50970593612416	78.43415680508397	2.1416888398935616	0.9966627058706442
0.010158438361361124	2.753150066780181e-26	2.6091401458393222e8	7.800848044826564e24	77.50970593612416	78.43415680508397	2.1416888398935616	0.9966627058706442
0.010198438638682717	3.4818129822548413e-26	2.6091401458393222e8	7.800848044826564e24	77.50970593612416	78.43415680508397	2.1416888398935616	0.9966627058706442
0.010238596422712378	4.221542223341537e-26	2.6091401458393222e8	7.800848044826564e24	77.50970593612416	78.43415680508397	2.1416888398935616	0.9966627058706442
0.010278912333654962	4.969686026483869e-26	2.6091401458393222e8	7.800848044826564e24	77.50970593612416	78.43415680508397	2.1416888398935616	0.9966627058706442
0.010319386994157353	5.723528185636306e-26	2.6091401458393222e8	7.800848044826564e24	77.50970593612416	78.43415680508397	2.1416888398935616	0.9966627058706442
0.010360021029318187	6.480286984215494e-26	2.6091401458393222e8	7.800848044826564e24	77.50970593612416	78.43415680508397	2.1416888398935616	0.9966627058706442
0.010400815066697646	7.237114111817673e-26	2.6091401458393222e8	7.800848044826564e24	77.50970593612416	78.43415680508397	2.1416888398935616	0.9966627058706442
0.010441769736326842	7.991093565491034e-26	2.6091401458393222e8	7.800848044826564e24	77.50970593612416	78.43415680508397	2.1416888398935616	0.9966627058706442
0.010482885670717897	8.739484777077116e-26	2.6091401458393222e8	7.800848044826564e24	77.50970593612416	78.43415680508397	2.1416888398935616	0.9966627058706442
0.010524163504873368	9.500673877432876e-26	2.6091401458393222e8	7.800848044826564e24	77.50970593612416	78.43415680508397	2.1416888398935616	0.9966627058706442
0.010565603876296396	1.0285574441604799e-25	2.6091401458393222e8	7.800848044826564e24	77.50970593612416	78.43415680508397	2.1416888398935616	0.9966627058706442
0.010607207425000249	1.1091268668841298e-25	2.6091401458393222e8	7.800848044826564e24	77.50970593612416	78.43415680508397	2.1416888398935616	0.9966627058706442
0.010648974793518336	1.191476585927246e-25	2.6091401458393222e8	7.800848044826564e24	77.50970593612416	78.43415680508397	2.1416888398935616	0.9966627058706442
0.010690906626914264	1.2753001195787451e-25	2.6091401458393222e8	7.800848044826564e24	77.50970593612416	78.43415680508397	2.1416888398935616	0.9966627058706442
0.010733003572791494	1.3602834508464495e-25	2.6091401458393222e8	7.800848044826564e24	77.50970593612416	78.43415680508397	2.1416888398935616	0.9966627058706442
0.01077526628130369	1.4461049021343127e-25	2.6091401458393222e8	7.800848044826564e24	77.50970593612416	78.43415680508397	2.1416888398935616	0.9966627058706442
0.010817695405164415	1.5324350081279422e-25	2.6091401458393222e8	7.800848044826564e24	77.50970593612416	78.43415680508397	2.1416888398935616	0.9966627058706442
0.010860291599657556	1.6189363868673337e-25	2.6091401458393222e8	7.800848044826564e24	77.50970593612416	78.43415680508397	2.1416888398935616	0.9966627058706442
0.010903055522647141	1.7052636089801345e-25	2.6091401458393222e8	7.800848044826564e24	77.50970593612416	78.43415680508397	2.1416888398935616	0.9966627058706442
0.010945987834587629	1.7910630650533632e-25	2.6091401458393222e8	7.800848044826564e24	77.50970593612416	78.43415680508397	2.1416888398935616	0.9966627058706442
0.010989089198534245	1.8771903837230155e-25	2.6091401458393222e8	7.800848044826564e24	77.50970593612416	78.43415680508397	2.1416888398935616	0.9966627058706442
0.011032360280152911	1.966215270073474e-25	2.6091401458393222e8	7.800848044826564e24	77.50970593612416	78.43415680508397	2.1416888398935616	0.9966627058706442
0.01107580174773088	2.058090681474617e-25	2.6091401458393222e8	7.800848044826564e24	77.50970593612416	78.43415680508397	2.1416888398935616	0.9966627058706442
0.011119414272186743	2.1526524805219575e-25	2.6091401458393222e8	7.800848044826564e24	77.50970593612416	78.43415680508397	2.1416888398935616	0.9966627058706442
0.011163198527080927	2.2497321861030488e-25	2.6091401458393222e8	7.800848044826564e24	77.50970593612416	78.43415680508397	2.1416888398935616	0.9966627058706442
0.01120715518862624	2.3491568996797463e-25	2.6091401458393222e8	7.800848044826564e24	77.50970593612416	78.43415680508397	2.1416888398935616	0.9966627058706442
0.01125128493569798	2.450749230506985e-25	2.6091401458393222e8	7.800848044826564e24	77.50970593612416	78.43415680508397	2.1416888398935616	0.9966627058706442
0.011295588449844803	2.5543272197766503e-25	2.6091401458393222e8	7.800848044826564e24	77.50970593612416	78.43415680508397	2.1416888398935616	0.9966627058706442
0.011340066415298873	2.659704263668811e-25	2.6091401458393222e8	7.800848044826564e24	77.50970593612416	78.43415680508397	2.1416888398935616	0.9966627058706442
0.011384719518986798	2.766689035299356e-25	2.6091401458393222e8	7.800848044826564e24	77.50970593612416	78.43415680508397	2.1416888398935616	0.9966627058706442
0.011429548450539917	2.87508540554592e-25	2.6091401458393222e8	7.800848044826564e24	77.50970593612416	78.43415680508397	2.1416888398935616	0.9966627058706442
0.01147455390230509	2.9846923627400253e-25	2.6091401458393222e8	7.800848044826564e24	77.50970593612416	78.43415680508397	2.1416888398935616	0.9966627058706442
0.011519736569355529	3.095303931209261e-25	2.6091401458393222e8	7.800848044826564e24	77.50970593612416	78.43415680508397	2.1416888398935616	0.9966627058706442
0.011565097149501208	3.206709088653051e-25	2.6091401458393222e8	7.800848044826564e24	77.50970593612416	78.43415680508397	2.1416888398935616	0.9966627058706442
0.011610636343300012	3.31869168233955e-25	2.6091401458393222e8	7.800848044826564e24	77.50970593612416	78.43415680508397	2.1416888398935616	0.9966627058706442
0.011656354854068185	3.4310303441043495e-25	2.6091401458393222e8	7.800848044826564e24	77.50970593612416	78.43415680508397	2.1416888398935616	0.9966627058706442
0.011702253387891564	3.5434984041388938e-25	2.6091401458393222e8	7.800848044826564e24	77.50970593612416	78.43415680508397	2.1416888398935616	0.9966627058706442
0.011748332653636156	3.6558638035489924e-25	2.6091401458393222e8	7.800848044826564e24	77.50970593612416	78.43415680508397	2.1416888398935616	0.9966627058706442
0.011794593362959231	3.767889005670082e-25	2.6091401458393222e8	7.800848044826564e24	77.50970593612416	78.43415680508397	2.1416888398935616	0.9966627058706442
0.01184103623032045	3.879330906121581e-25	2.6091401458393222e8	7.800848044826564e24	77.50970593612416	78.43415680508397	2.1416888398935616	0.9966627058706442
0.011887661972992566	3.989940741582584e-25	2.6091401458393222e8	7.800848044826564e24	77.50970593612416	78.43415680508397	2.1416888398935616	0.9966627058706442
0.011934471311072888	4.100056057848579e-25	2.6091401458393222e8	7.800848044826564e24	77.50970593612416	78.43415680508397	2.1416888398935616	0.9966627058706442
0.011981464967494018	4.213358157102426e-25	2.6091401458393222e8	7.800848044826564e24	77.50970593612416	78.43415680508397	2.1416888398935616	0.9966627058706442
0.012028643668035398	4.330341374770043e-25	2.6091401458393222e8	7.800848044826564e24	77.50970593612416	78.43415680508397	2.1416888398935616	0.9966627058706442
0.012076008141334185	4.450774942459533e-25	2.6091401458393222e8	7.800848044826564e24	77.50970593612416	78.43415680508397	2.1416888398935616	0.9966627058706442
0.012123559118896643	4.5744220363447185e-25	2.6091401458393222e8	7.800848044826564e24	77.50970593612416	78.43415680508397	2.1416888398935616	0.9966627058706442
0.012171297335109596	4.701039674623581e-25	2.6091401458393222e8	7.800848044826564e24	77.50970593612416	78.43415680508397	2.1416888398935616	0.9966627058706442
0.01221922352725142	4.830378613498928e-25	2.6091401458393222e8	7.800848044826564e24	77.50970593612416	78.43415680508397	2.1416888398935616	0.9966627058706442
0.012267338435503825	4.9621832416649e-25	2.6091401458393222e8	7.800848044826564e24	77.50970593612416	78.43415680508397	2.1416888398935616	0.9966627058706442
0.012315642802962894	5.096191473275446e-25	2.6091401458393222e8	7.800848044826564e24	77.50970593612416	78.43415680508397	2.1416888398935616	0.9966627058706442
0.012364137375650956	5.232134639378845e-25	2.6091401458393222e8	7.800848044826564e24	77.50970593612416	78.43415680508397	2.1416888398935616	0.9966627058706442
0.012412822902527753	5.369737377793691e-25	2.6091401458393222e8	7.800848044826564e24	77.50970593612416	78.43415680508397	2.1416888398935616	0.9966627058706442
0.012461700135502162	5.508717521409051e-25	2.6091401458393222e8	7.800848044826564e24	77.50970593612416	78.43415680508397	2.1416888398935616	0.9966627058706442
0.012510769829443963	5.648785984886689e-25	2.6091401458393222e8	7.800848044826564e24	77.50970593612416	78.43415680508397	2.1416888398935616	0.9966627058706442
0.012560032742195132	5.789646649742525e-25	2.6091401458393222e8	7.800848044826564e24	77.50970593612416	78.43415680508397	2.1416888398935616	0.9966627058706442
0.012609489634581967	5.9309962477895855e-25	2.6091401458393222e8	7.800848044826564e24	77.50970593612416	78.43415680508397	2.1416888398935616	0.9966627058706442
0.01265914127042641	6.072524242916214e-25	2.6091401458393222e8	7.800848044826564e24	77.50970593612416	78.43415680508397	2.1416888398935616	0.9966627058706442
0.012708988416558273	6.213912711182244e-25	2.6091401458393222e8	7.800848044826564e24	77.50970593612416	78.43415680508397	2.1416888398935616	0.9966627058706442
0.012759031842826712	6.354836219206237e-25	2.6091401458393222e8	7.800848044826564e24	77.50970593612416	78.43415680508397	2.1416888398935616	0.9966627058706442
0.012809272322112271	6.494961700824935e-25	2.6091401458393222e8	7.800848044826564e24	77.50970593612416	78.43415680508397	2.1416888398935616	0.9966627058706442
0.012859710630338977	6.6339483320006645e-25	2.6091401458393222e8	7.800848044826564e24	77.50970593612416	78.43415680508397	2.1416888398935616	0.9966627058706442
0.012910347546485953	6.772716102121078e-25	2.6091401458393222e8	7.800848044826564e24	77.50970593612416	78.43415680508397	2.1416888398935616	0.9966627058706442
0.01296118385259988	6.913479593623083e-25	2.6091401458393222e8	7.800848044826564e24	77.50970593612416	78.43415680508397	2.1416888398935616	0.9966627058706442
0.01301222033380664	7.056309968431398e-25	2.6091401458393222e8	7.800848044826564e24	77.50970593612416	78.43415680508397	2.1416888398935616	0.9966627058706442
0.013063457778323871	7.20122730084975e-25	2.6091401458393222e8	7.800848044826564e24	77.50970593612416	78.43415680508397	2.1416888398935616	0.9966627058706442
0.013114896977472772	7.34825183840853e-25	2.6091401458393222e8	7.800848044826564e24	77.50970593612416	78.43415680508397	2.1416888398935616	0.9966627058706442
0.01316653872569048	7.497404003290498e-25	2.6091401458393222e8	7.800848044826564e24	77.50970593612416	78.43415680508397	2.1416888398935616	0.9966627058706442
0.013218383820542495	7.648704393768039e-25	2.6091401458393222e8	7.800848044826564e24	77.50970593612416	78.43415680508397	2.1416888398935616	0.9966627058706442
0.013270433062734637	7.8021737856504275e-25	2.6091401458393222e8	7.800848044826564e24	77.50970593612416	78.43415680508397	2.1416888398935616	0.9966627058706442
0.013322687256125825	7.957833133744956e-25	2.6091401458393222e8	7.800848044826564e24	77.50970593612416	78.43415680508397	2.1416888398935616	0.9966627058706442
0.013375147207740077	8.115703573327499e-25	2.6091401458393222e8	7.800848044826564e24	77.50970593612416	78.43415680508397	2.1416888398935616	0.9966627058706442
0.013427813727779389	8.275806421627305e-25	2.6091401458393222e8	7.800848044826564e24	77.50970593612416	78.43415680508397	2.1416888398935616	0.9966627058706442
0.013480687629635887	8.438163179321428e-25	2.6091401458393222e8	7.800848044826564e24	77.50970593612416	78.43415680508397	2.1416888398935616	0.9966627058706442
0.013533769729904537	8.602795532042754e-25	2.6091401458393222e8	7.800848044826564e24	77.50970593612416	78.43415680508397	2.1416888398935616	0.9966627058706442
0.013587060848395926	8.76972535190018e-25	2.6091401458393222e8	7.800848044826564e24	77.50970593612416	78.43415680508397	2.1416888398935616	0.9966627058706442
0.013640561808148547	8.938974699009348e-25	2.6091401458393222e8	7.800848044826564e24	77.50970593612416	78.43415680508397	2.1416888398935616	0.9966627058706442
0.013694273435441936	9.110565823038284e-25	2.6091401458393222e8	7.800848044826564e24	77.50970593612416	78.43415680508397	2.1416888398935616	0.9966627058706442
0.013748196559809002	9.28452116476265e-25	2.6091401458393222e8	7.800848044826564e24	77.50970593612416	78.43415680508397	2.1416888398935616	0.9966627058706442
0.013802332014049281	9.460863357636345e-25	2.6091401458393222e8	7.800848044826564e24	77.50970593612416	78.43415680508397	2.1416888398935616	0.9966627058706442
0.013856680634241402	9.63961522937209e-25	2.6091401458393222e8	7.800848044826564e24	77.50970593612416	78.43415680508397	2.1416888398935616	0.9966627058706442
0.013911243259756173	9.820799803536454e-25	2.6091401458393222e8	7.800848044826564e24	77.50970593612416	78.43415680508397	2.1416888398935616	0.9966627058706442
0.013966020733269717	1.0004440301157855e-24	2.6091401458393222e8	7.800848044826564e24	77.50970593612416	78.43415680508397	2.1416888398935616	0.9966627058706442
0.014021013900776074	1.019056014234544e-24	2.6091401458393222e8	7.800848044826564e24	77.50970593612416	78.43415680508397	2.1416888398935616	0.9966627058706442
0.014076223611600743	1.0379182947924006e-24	2.6091401458393222e8	7.800848044826564e24	77.50970593612416	78.43415680508397	2.1416888398935616	0.9966627058706442
0.014131650718413385	1.057033254107907e-24	2.6091401458393222e8	7.800848044826564e24	77.50970593612416	78.43415680508397	2.1416888398935616	0.9966627058706442
0.014187296077241169	1.0764032949017107e-24	2.6091401458393222e8	7.800848044826564e24	77.50970593612416	78.43415680508397	2.1416888398935616	0.9966627058706442
0.01424316054748216	1.0960308404639273e-24	2.6091401458393222e8	7.800848044826564e24	77.50970593612416	78.43415680508397	2.1416888398935616	0.9966627058706442
0.014299244991918201	1.1159183348226387e-24	2.6091401458393222e8	7.800848044826564e24	77.50970593612416	78.43415680508397	2.1416888398935616	0.9966627058706442
0.01435555027672868	1.1360682429140664e-24	2.6091401458393222e8	7.800848044826564e24	77.50970593612416	78.43415680508397	2.1416888398935616	0.9966627058706442
0.014412077271503466	1.1564830507537778e-24	2.6091401458393222e8	7.800848044826564e24	77.50970593612416	78.43415680508397	2.1416888398935616	0.9966627058706442
0.014468826849256789	1.177165265609595e-24	2.6091401458393222e8	7.800848044826564e24	77.50970593612416	78.43415680508397	2.1416888398935616	0.9966627058706442
0.014525799886440316	1.1981174161755914e-24	2.6091401458393222e8	7.800848044826564e24	77.50970593612416	78.43415680508397	2.1416888398935616	0.9966627058706442
0.014582997262956872	1.2193420527476841e-24	2.6091401458393222e8	7.800848044826564e24	77.50970593612416	78.43415680508397	2.1416888398935616	0.9966627058706442
0.014640419862174195	1.2408417474006537e-24	2.6091401458393222e8	7.800848044826564e24	77.50970593612416	78.43415680508397	2.1416888398935616	0.9966627058706442
0.014698068570938175	1.2626190941663533e-24	2.6091401458393222e8	7.800848044826564e24	77.50970593612416	78.43415680508397	2.1416888398935616	0.9966627058706442
0.014755944279587015	1.2846767092136878e-24	2.6091401458393222e8	7.800848044826564e24	77.50970593612416	78.43415680508397	2.1416888398935616	0.9966627058706442
0.014814047881964514	1.307017231029687e-24	2.6091401458393222e8	7.800848044826564e24	77.50970593612416	78.43415680508397	2.1416888398935616	0.9966627058706442
0.014872380275434345	1.3296433206023757e-24	2.6091401458393222e8	7.800848044826564e24	77.50970593612416	78.43415680508397	2.1416888398935616	0.9966627058706442
0.014930942360893502	1.3525576616048035e-24	2.6091401458393222e8	7.800848044826564e24	77.50970593612416	78.43415680508397	2.1416888398935616	0.9966627058706442
0.014989735042786374	1.375762960580738e-24	2.6091401458393222e8	7.800848044826564e24	77.50970593612416	78.43415680508397	2.1416888398935616	0.9966627058706442
0.01504875922911892	1.3992619471318976e-24	2.6091401458393222e8	7.800848044826564e24	77.50970593612416	78.43415680508397	2.1416888398935616	0.9966627058706442
0.015108015831472256	1.4230573741064178e-24	2.6091401458393222e8	7.800848044826564e24	77.50970593612416	78.43415680508397	2.1416888398935616	0.9966627058706442
0.015167505765017214	1.4471520177892007e-24	2.6091401458393222e8	7.800848044826564e24	77.50970593612416	78.43415680508397	2.1416888398935616	0.9966627058706442
0.015227229948528	1.4715486780934107e-24	2.6091401458393222e8	7.800848044826564e24	77.50970593612416	78.43415680508397	2.1416888398935616	0.9966627058706442
0.015287189304396868	1.4962501787538914e-24	2.6091401458393222e8	7.800848044826564e24	77.50970593612416	78.43415680508397	2.1416888398935616	0.9966627058706442
0.015347384758647935	1.5212593675217686e-24	2.6091401458393222e8	7.800848044826564e24	77.50970593612416	78.43415680508397	2.1416888398935616	0.9966627058706442
0.015407817240951662	1.5465791163608625e-24	2.6091401458393222e8	7.800848044826564e24	77.50970593612416	78.43415680508397	2.1416888398935616	0.9966627058706442
0.015468487684639423	1.5722123216456881e-24	2.6091401458393222e8	7.800848044826564e24	77.50970593612416	78.43415680508397	2.1416888398935616	0.9966627058706442
0.01552939702671744	1.5981619043607608e-24	2.6091401458393222e8	7.800848044826564e24	77.50970593612416	78.43415680508397	2.1416888398935616	0.9966627058706442
0.015590546207881799	1.6244308103019334e-24	2.6091401458393222e8	7.800848044826564e24	77.50970593612416	78.43415680508397	2.1416888398935616	0.9966627058706442
0.01565193617253245	1.6510220102788878e-24	2.6091401458393222e8	7.800848044826564e24	77.50970593612416	78.43415680508397	2.1416888398935616	0.9966627058706442
0.0157135678687883	1.6779385003197007e-24	2.6091401458393222e8	7.800848044826564e24	77.50970593612416	78.43415680508397	2.1416888398935616	0.9966627058706442
0.01577544224850142	1.705183301876642e-24	2.6091401458393222e8	7.800848044826564e24	77.50970593612416	78.43415680508397	2.1416888398935616	0.9966627058706442
0.01583756026727194	1.7327594620338938e-24	2.6091401458393222e8	7.800848044826564e24	77.50970593612416	78.43415680508397	2.1416888398935616	0.9966627058706442
0.015899922884462982	1.760670053716943e-24	2.6091401458393222e8	7.800848044826564e24	77.50970593612416	78.43415680508397	2.1416888398935616	0.9966627058706442
0.015962531063215036	1.788918175903361e-24	2.6091401458393222e8	7.800848044826564e24	77.50970593612416	78.43415680508397	2.1416888398935616	0.9966627058706442
0.01602538577046136	1.8175069538357203e-24	2.6091401458393222e8	7.800848044826564e24	77.50970593612416	78.43415680508397	2.1416888398935616	0.9966627058706442
0.01608848797694238	1.8464395392357356e-24	2.6091401458393222e8	7.800848044826564e24	77.50970593612416	78.43415680508397	2.1416888398935616	0.9966627058706442
0.016151838657221213	1.8757191105206106e-24	2.6091401458393222e8	7.800848044826564e24	77.50970593612416	78.43415680508397	2.1416888398935616	0.9966627058706442
0.016215438789698264	1.9053488730206675e-24	2.6091401458393222e8	7.800848044826564e24	77.50970593612416	78.43415680508397	2.1416888398935616	0.9966627058706442
0.016279289356626512	1.935332059199007e-24	2.6091401458393222e8	7.800848044826564e24	77.50970593612416	78.43415680508397	2.1416888398935616	0.9966627058706442
