r[m]	M[Msun]	rho[g/cm^3]	P[N/m^2]	n_e[pm^-3]	n_p[pm^-3]	muF_e[MeV]	B
0.010000000000000002	2.151552987974356e-38	9.315489943465187e9	9.519393805093511e26	2778.836096480649	8381.808021581694	8.087333676337837	0.9883378955287453
0.010037493231199585	2.2347070714578026e-25	9.315489943465187e9	9.519393805093511e26	2778.836096480649	8381.808021581694	8.087333676337837	0.9883378955287453
0.010075127036637706	4.513123540824515e-25	9.315489943465187e9	9.519393805093511e26	2778.836096480649	8381.808021581694	8.087333676337837	0.9883378955287453
0.01011290194337269	6.803735146574694e-25	9.315489943465187e9	9.519393805093511e26	2778.836096480649	8381.808021581694	8.087333676337837	0.9883378955287453
0.010150818480438849	9.110031577601966e-25	9.315489943465187e9	9.519393805093511e26	2778.836096480649	8381.808021581694	8.087333676337837	0.9883378955287453
0.01018887717885406	1.1465238420810479e-24	9.315489943465187e9	9.519393805093511e26	2778.836096480649	8381.808021581694	8.087333676337837	0.9883378955287453
0.01022707857162711	1.38378560758549e-24	9.315489943465187e9	9.519393805093511e26	2778.836096480649	8381.808021581694	8.087333676337837	0.9883378955287453
0.010265423193765343	1.6209353502417652e-24	9.315489943465187e9	9.519393805093511e26	2778.836096480649	8381.808021581694	8.087333676337837	0.9883378955287453
0.010303911582281885	1.86055779578407e-24	9.315489943465187e9	9.519393805093511e26	2778.836096480649	8381.808021581694	8.087333676337837	0.9883378955287453
0.010342544276203342	2.1028948899564824e-24	9.315489943465187e9	9.519393805093511e26	2778.836096480649	8381.808021581694	8.087333676337837	0.9883378955287453
0.010381321816577261	2.3479704556262436e-24	9.315489943465187e9	9.519393805093511e26	2778.836096480649	8381.808021581694	8.087333676337837	0.9883378955287453
0.010420244746479883	2.595808507490177e-24	9.315489943465187e9	9.519393805093511e26	2778.836096480649	8381.808021581694	8.087333676337837	0.9883378955287453
0.010459313611023487	2.8464332535623966e-24	9.315489943465187e9	9.519393805093511e26	2778.836096480649	8381.808021581694	8.087333676337837	0.9883378955287453
0.010498528957364191	3.0998756831684844e-24	9.315489943465187e9	9.519393805093511e26	2778.836096480649	8381.808021581694	8.087333676337837	0.9883378955287453
0.010537891334709545	3.3561928986920075e-24	9.315489943465187e9	9.519393805093511e26	2778.836096480649	8381.808021581694	8.087333676337837	0.9883378955287453
0.010577401294326383	3.615414508423439e-24	9.315489943465187e9	9.519393805093511e26	2778.836096480649	8381.808021581694	8.087333676337837	0.9883378955287453
0.010617059389548277	3.87756600189892e-24	9.315489943465187e9	9.519393805093511e26	2778.836096480649	8381.808021581694	8.087333676337837	0.9883378955287453
0.01065686617578348	4.142673073909118e-24	9.315489943465187e9	9.519393805093511e26	2778.836096480649	8381.808021581694	8.087333676337837	0.9883378955287453
0.010696822210522606	4.410761626092131e-24	9.315489943465187e9	9.519393805093511e26	2778.836096480649	8381.808021581694	8.087333676337837	0.9883378955287453
0.010736928053346603	4.681864334988411e-24	9.315489943465187e9	9.519393805093511e26	2778.836096480649	8381.808021581694	8.087333676337837	0.9883378955287453
0.010777184265934346	4.9560415689400496e-24	9.315489943465187e9	9.519393805093511e26	2778.836096480649	8381.808021581694	8.087333676337837	0.9883378955287453
0.010817591412070664	5.233325160376695e-24	9.315489943465187e9	9.519393805093511e26	2778.836096480649	8381.808021581694	8.087333676337837	0.9883378955287453
0.010858150057654161	5.513742370277347e-24	9.315489943465187e9	9.519393805093511e26	2778.836096480649	8381.808021581694	8.087333676337837	0.9883378955287453
0.0108988607707053	5.797320679137224e-24	9.315489943465187e9	9.519393805093511e26	2778.836096480649	8381.808021581694	8.087333676337837	0.9883378955287453
0.010939724121374114	6.084087788670449e-24	9.315489943465187e9	9.519393805093511e26	2778.836096480649	8381.808021581694	8.087333676337837	0.9883378955287453
0.010980740681948348	6.374074589358703e-24	9.315489943465187e9	9.519393805093511e26	2778.836096480649	8381.808021581694	8.087333676337837	0.9883378955287453
0.011021911026861399	6.667323171631668e-24	9.315489943465187e9	9.519393805093511e26	2778.836096480649	8381.808021581694	8.087333676337837	0.9883378955287453
0.011063235732700535	6.963871413618943e-24	9.315489943465187e9	9.519393805093511e26	2778.836096480649	8381.808021581694	8.087333676337837	0.9883378955287453
0.011104715378214697	7.2637569875045e-24	9.315489943465187e9	9.519393805093511e26	2778.836096480649	8381.808021581694	8.087333676337837	0.9883378955287453
0.01114635054432275	7.56701799582529e-24	9.315489943465187e9	9.519393805093511e26	2778.836096480649	8381.808021581694	8.087333676337837	0.9883378955287453
0.011188141814121741	7.873692976375631e-24	9.315489943465187e9	9.519393805093511e26	2778.836096480649	8381.808021581694	8.087333676337837	0.9883378955287453
0.0112300897728948	8.183820907164697e-24	9.315489943465187e9	9.519393805093511e26	2778.836096480649	8381.808021581694	8.087333676337837	0.9883378955287453
0.011272195008119523	8.49744121143343e-24	9.315489943465187e9	9.519393805093511e26	2778.836096480649	8381.808021581694	8.087333676337837	0.9883378955287453
0.0113144581094761	8.814593762726618e-24	9.315489943465187e9	9.519393805093511e26	2778.836096480649	8381.808021581694	8.087333676337837	0.9883378955287453
0.011356879668855758	9.135318890024447e-24	9.315489943465187e9	9.519393805093511e26	2778.836096480649	8381.808021581694	8.087333676337837	0.9883378955287453
0.011399460280368784	9.459657382929244e-24	9.315489943465187e9	9.519393805093511e26	2778.836096480649	8381.808021581694	8.087333676337837	0.9883378955287453
0.011442200540353017	9.787650496914266e-24	9.315489943465187e9	9.519393805093511e26	2778.836096480649	8381.808021581694	8.087333676337837	0.9883378955287453
0.011485101047382118	1.0119339958630296e-23	9.315489943465187e9	9.519393805093511e26	2778.836096480649	8381.808021581694	8.087333676337837	0.9883378955287453
0.011528162402274125	1.0454767971274423e-23	9.315489943465187e9	9.519393805093511e26	2778.836096480649	8381.808021581694	8.087333676337837	0.9883378955287453
0.011571385208099605	1.0793977220016622e-23	9.315489943465187e9	9.519393805093511e26	2778.836096480649	8381.808021581694	8.087333676337837	0.9883378955287453
0.011614770070190279	1.1137010877491177e-23	9.315489943465187e9	9.519393805093511e26	2778.836096480649	8381.808021581694	8.087333676337837	0.9883378955287453
0.011658317596147397	1.1483912609348464e-23	9.315489943465187e9	9.519393805093511e26	2778.836096480649	8381.808021581694	8.087333676337837	0.9883378955287453
0.01170202839585045	1.1834726579872219e-23	9.315489943465187e9	9.519393805093511e26	2778.836096480649	8381.808021581694	8.087333676337837	0.9883378955287453
0.011745903081465421	1.2189497457656642e-23	9.315489943465187e9	9.519393805093511e26	2778.836096480649	8381.808021581694	8.087333676337837	0.9883378955287453
0.01178994226745355	1.2548270421351798e-23	9.315489943465187e9	9.519393805093511e26	2778.836096480649	8381.808021581694	8.087333676337837	0.9883378955287453
0.01183414657057984	1.2911091165472169e-23	9.315489943465187e9	9.519393805093511e26	2778.836096480649	8381.808021581694	8.087333676337837	0.9883378955287453
0.011878516609921891	1.3278005906273317e-23	9.315489943465187e9	9.519393805093511e26	2778.836096480649	8381.808021581694	8.087333676337837	0.9883378955287453
0.011923053006878282	1.364906138769155e-23	9.315489943465187e9	9.519393805093511e26	2778.836096480649	8381.808021581694	8.087333676337837	0.9883378955287453
0.01196775638517746	1.4024304887354895e-23	9.315489943465187e9	9.519393805093511e26	2778.836096480649	8381.808021581694	8.087333676337837	0.9883378955287453
0.012012627370886384	1.440378422265998e-23	9.315489943465187e9	9.519393805093511e26	2778.836096480649	8381.808021581694	8.087333676337837	0.9883378955287453
0.012057666592419495	1.4787547756920597e-23	9.315489943465187e9	9.519393805093511e26	2778.836096480649	8381.808021581694	8.087333676337837	0.9883378955287453
0.012102874680547203	1.5175644405581526e-23	9.315489943465187e9	9.519393805093511e26	2778.836096480649	8381.808021581694	8.087333676337837	0.9883378955287453
0.012148252268404937	1.5568123642507567e-23	9.315489943465187e9	9.519393805093511e26	2778.836096480649	8381.808021581694	8.087333676337837	0.9883378955287453
0.012193799991501905	1.5965035506341274e-23	9.315489943465187e9	9.519393805093511e26	2778.836096480649	8381.808021581694	8.087333676337837	0.9883378955287453
0.012239518487730193	1.6366430606935452e-23	9.315489943465187e9	9.519393805093511e26	2778.836096480649	8381.808021581694	8.087333676337837	0.9883378955287453
0.012285408397373397	1.677236013185447e-23	9.315489943465187e9	9.519393805093511e26	2778.836096480649	8381.808021581694	8.087333676337837	0.9883378955287453
0.0123314703631158	1.718287585295368e-23	9.315489943465187e9	9.519393805093511e26	2778.836096480649	8381.808021581694	8.087333676337837	0.9883378955287453
0.012377705030051261	1.759803013303105e-23	9.315489943465187e9	9.519393805093511e26	2778.836096480649	8381.808021581694	8.087333676337837	0.9883378955287453
0.012424113045692457	1.8017875932556928e-23	9.315489943465187e9	9.519393805093511e26	2778.836096480649	8381.808021581694	8.087333676337837	0.9883378955287453
0.012470695059979648	1.8442466816475712e-23	9.315489943465187e9	9.519393805093511e26	2778.836096480649	8381.808021581694	8.087333676337837	0.9883378955287453
0.01251745172528993	1.8871856961088945e-23	9.315489943465187e9	9.519393805093511e26	2778.836096480649	8381.808021581694	8.087333676337837	0.9883378955287453
0.012564383696446522	1.930610116101656e-23	9.315489943465187e9	9.519393805093511e26	2778.836096480649	8381.808021581694	8.087333676337837	0.9883378955287453
0.012611491630727638	1.974525483623292e-23	9.315489943465187e9	9.519393805093511e26	2778.836096480649	8381.808021581694	8.087333676337837	0.9883378955287453
0.012658776187875885	2.0189374039187517e-23	9.315489943465187e9	9.519393805093511e26	2778.836096480649	8381.808021581694	8.087333676337837	0.9883378955287453
0.012706238030107416	2.063851546200376e-23	9.315489943465187e9	9.519393805093511e26	2778.836096480649	8381.808021581694	8.087333676337837	0.9883378955287453
0.012753877822121392	2.1092736443762163e-23	9.315489943465187e9	9.519393805093511e26	2778.836096480649	8381.808021581694	8.087333676337837	0.9883378955287453
0.012801696231108998	2.1552094977861773e-23	9.315489943465187e9	9.519393805093511e26	2778.836096480649	8381.808021581694	8.087333676337837	0.9883378955287453
0.012849693926762978	2.2016649719469576e-23	9.315489943465187e9	9.519393805093511e26	2778.836096480649	8381.808021581694	8.087333676337837	0.9883378955287453
0.012897871581286927	2.2486459993052032e-23	9.315489943465187e9	9.519393805093511e26	2778.836096480649	8381.808021581694	8.087333676337837	0.9883378955287453
0.0129462298694049	2.296158579999479e-23	9.315489943465187e9	9.519393805093511e26	2778.836096480649	8381.808021581694	8.087333676337837	0.9883378955287453
0.012994769468370554	2.344208782630395e-23	9.315489943465187e9	9.519393805093511e26	2778.836096480649	8381.808021581694	8.087333676337837	0.9883378955287453
0.013043491057976846	2.3928027450400063e-23	9.315489943465187e9	9.519393805093511e26	2778.836096480649	8381.808021581694	8.087333676337837	0.9883378955287453
0.013092395320565437	2.441946675099717e-23	9.315489943465187e9	9.519393805093511e26	2778.836096480649	8381.808021581694	8.087333676337837	0.9883378955287453
0.013141482941036467	2.491646851507471e-23	9.315489943465187e9	9.519393805093511e26	2778.836096480649	8381.808021581694	8.087333676337837	0.9883378955287453
0.013190754606857834	2.541909624593467e-23	9.315489943465187e9	9.519393805093511e26	2778.836096480649	8381.808021581694	8.087333676337837	0.9883378955287453
0.013240211008075023	2.5927414171355336e-23	9.315489943465187e9	9.519393805093511e26	2778.836096480649	8381.808021581694	8.087333676337837	0.9883378955287453
0.013289852837320672	2.6441487251834526e-23	9.315489943465187e9	9.519393805093511e26	2778.836096480649	8381.808021581694	8.087333676337837	0.9883378955287453
0.013339680789824485	2.696138117958655e-23	9.315489943465187e9	9.519393805093511e26	2778.836096480649	8381.808021581694	8.087333676337837	0.9883378955287453
0.013389695563422637	2.74871529409534e-23	9.315489943465187e9	9.519393805093511e26	2778.836096480649	8381.808021581694	8.087333676337837	0.9883378955287453
0.013439897858567756	2.8018860767682876e-23	9.315489943465187e9	9.519393805093511e26	2778.836096480649	8381.808021581694	8.087333676337837	0.9883378955287453
0.013490288378338761	2.855657167910702e-23	9.315489943465187e9	9.519393805093511e26	2778.836096480649	8381.808021581694	8.087333676337837	0.9883378955287453
0.013540867828450546	2.910035345121816e-23	9.315489943465187e9	9.519393805093511e26	2778.836096480649	8381.808021581694	8.087333676337837	0.9883378955287453
0.013591636917264055	2.965027462521378e-23	9.315489943465187e9	9.519393805093511e26	2778.836096480649	8381.808021581694	8.087333676337837	0.9883378955287453
0.013642596355796005	3.020640451613369e-23	9.315489943465187e9	9.519393805093511e26	2778.836096480649	8381.808021581694	8.087333676337837	0.9883378955287453
0.013693746857729052	3.0768813221599154e-23	9.315489943465187e9	9.519393805093511e26	2778.836096480649	8381.808021581694	8.087333676337837	0.9883378955287453
0.013745089139421567	3.1337571630646006e-23	9.315489943465187e9	9.519393805093511e26	2778.836096480649	8381.808021581694	8.087333676337837	0.9883378955287453
0.013796623919917888	3.191275143266225e-23	9.315489943465187e9	9.519393805093511e26	2778.836096480649	8381.808021581694	8.087333676337837	0.9883378955287453
0.013848351920958178	3.2494425126421797e-23	9.315489943465187e9	9.519393805093511e26	2778.836096480649	8381.808021581694	8.087333676337837	0.9883378955287453
0.013900273866988718	3.308266602922479e-23	9.315489943465187e9	9.519393805093511e26	2778.836096480649	8381.808021581694	8.087333676337837	0.9883378955287453
0.013952390485171972	3.367754828613787e-23	9.315489943465187e9	9.519393805093511e26	2778.836096480649	8381.808021581694	8.087333676337837	0.9883378955287453
0.014004702505396685	3.427914687933896e-23	9.315489943465187e9	9.519393805093511e26	2778.836096480649	8381.808021581694	8.087333676337837	0.9883378955287453
0.014057210660288309	3.4887537637570666e-23	9.315489943465187e9	9.519393805093511e26	2778.836096480649	8381.808021581694	8.087333676337837	0.9883378955287453
0.014109915685219025	3.5502797245695466e-23	9.315489943465187e9	9.519393805093511e26	2778.836096480649	8381.808021581694	8.087333676337837	0.9883378955287453
0.01416281831831828	3.612500325436421e-23	9.315489943465187e9	9.519393805093511e26	2778.836096480649	8381.808021581694	8.087333676337837	0.9883378955287453
0.014215919300482893	3.675423408978828e-23	9.315489943465187e9	9.519393805093511e26	2778.836096480649	8381.808021581694	8.087333676337837	0.9883378955287453
0.014269219375387655	3.739056906362765e-23	9.315489943465187e9	9.519393805093511e26	2778.836096480649	8381.808021581694	8.087333676337837	0.9883378955287453
0.014322719289495524	3.8034088382984927e-23	9.315489943465187e9	9.519393805093511e26	2778.836096480649	8381.808021581694	8.087333676337837	0.9883378955287453
0.014376419792068305	3.868487316051788e-23	9.315489943465187e9	9.519393805093511e26	2778.836096480649	8381.808021581694	8.087333676337837	0.9883378955287453
0.014430321635176904	3.9343005424660545e-23	9.315489943465187e9	9.519393805093511e26	2778.836096480649	8381.808021581694	8.087333676337837	0.9883378955287453
0.014484425573712108	4.0008568129965397e-23	9.315489943465187e9	9.519393805093511e26	2778.836096480649	8381.808021581694	8.087333676337837	0.9883378955287453
0.014538732365394914	4.0681645167556406e-23	9.315489943465187e9	9.519393805093511e26	2778.836096480649	8381.808021581694	8.087333676337837	0.9883378955287453
0.014593242770787376	4.136232137570614e-23	9.315489943465187e9	9.519393805093511e26	2778.836096480649	8381.808021581694	8.087333676337837	0.9883378955287453
0.014647957553303026	4.205068255052628e-23	9.315489943465181e9	9.519393805093505e26	2778.8360964806475	8381.808021581688	8.087333676337835	0.9883378955287453
0.014702877479217794	4.2746815456784715e-23	9.315489943465181e9	9.519393805093505e26	2778.8360964806475	8381.808021581688	8.087333676337835	0.9883378955287453
0.014758003317680509	4.345080783883899e-23	9.315489943465181e9	9.519393805093505e26	2778.8360964806475	8381.808021581688	8.087333676337835	0.9883378955287453
0.014813335840723913	4.4162748431699045e-23	9.315489943465181e9	9.519393805093505e26	2778.8360964806475	8381.808021581688	8.087333676337835	0.9883378955287453
0.014868875823275216	4.4882726972208664e-23	9.315489943465181e9	9.519393805093505e26	2778.8360964806475	8381.808021581688	8.087333676337835	0.9883378955287453
0.014924624043167212	4.561083421035969e-23	9.315489943465181e9	9.519393805093505e26	2778.8360964806475	8381.808021581688	8.087333676337835	0.9883378955287453
0.014980581281148915	4.6347161920727435e-23	9.315489943465181e9	9.519393805093505e26	2778.8360964806475	8381.808021581688	8.087333676337835	0.9883378955287453
0.015036748320896742	4.7091802914041544e-23	9.315489943465181e9	9.519393805093505e26	2778.8360964806475	8381.808021581688	8.087333676337835	0.9883378955287453
0.015093125949025244	4.7844851048881235e-23	9.315489943465181e9	9.519393805093505e26	2778.8360964806475	8381.808021581688	8.087333676337835	0.9883378955287453
0.01514971495509837	4.860640124350905e-23	9.315489943465181e9	9.519393805093505e26	2778.8360964806475	8381.808021581688	8.087333676337835	0.9883378955287453
0.015206516131640268	4.937654948783135e-23	9.315489943465181e9	9.519393805093505e26	2778.8360964806475	8381.808021581688	8.087333676337835	0.9883378955287453
0.015263530274146645	5.015539285550094e-23	9.315489943465181e9	9.519393805093505e26	2778.8360964806475	8381.808021581688	8.087333676337835	0.9883378955287453
0.015320758181095658	5.0943029516149434e-23	9.315489943465181e9	9.519393805093505e26	2778.8360964806475	8381.808021581688	8.087333676337835	0.9883378955287453
0.015378200653959301	5.173955874776383e-23	9.315489943465181e9	9.519393805093505e26	2778.8360964806475	8381.808021581688	8.087333676337835	0.9883378955287453
0.01543585849721455	5.254508094919886e-23	9.315489943465181e9	9.519393805093505e26	2778.8360964806475	8381.808021581688	8.087333676337835	0.9883378955287453
0.01549373251835453	5.335969765283064e-23	9.315489943465181e9	9.519393805093505e26	2778.8360964806475	8381.808021581688	8.087333676337835	0.9883378955287453
0.015551823527900048	5.418351153735726e-23	9.315489943465181e9	9.519393805093505e26	2778.8360964806475	8381.808021581688	8.087333676337835	0.9883378955287453
0.015610132339410684	5.501662644073748e-23	9.315489943465181e9	9.519393805093505e26	2778.8360964806475	8381.808021581688	8.087333676337835	0.9883378955287453
0.015668659769496447	5.58591473732826e-23	9.315489943465181e9	9.519393805093505e26	2778.8360964806475	8381.808021581688	8.087333676337835	0.9883378955287453
0.01572740663782895	5.671118053088889e-23	9.315489943465181e9	9.519393805093505e26	2778.8360964806475	8381.808021581688	8.087333676337835	0.9883378955287453
0.01578637376715315	5.757283330842684e-23	9.315489943465181e9	9.519393805093505e26	2778.8360964806475	8381.808021581688	8.087333676337835	0.9883378955287453
0.015845561983298607	5.844421431327393e-23	9.315489943465181e9	9.519393805093505e26	2778.8360964806475	8381.808021581688	8.087333676337835	0.9883378955287453
0.01590497211519132	5.932543337900808e-23	9.315489943465181e9	9.519393805093505e26	2778.8360964806475	8381.808021581688	8.087333676337835	0.9883378955287453
0.015964604994865073	6.02166015792476e-23	9.315489943465181e9	9.519393805093505e26	2778.8360964806475	8381.808021581688	8.087333676337835	0.9883378955287453
