r[m]	M[Msun]	rho[g/cm^3]	P[N/m^2]	n_e[pm^-3]	n_p[pm^-3]	muF_e[MeV]	B
0.009999999999999981	-3.525857459042976e-38	3.0546885439521823e9	2.1298063875172378e26	906.5627051777494	917.0755404011072	5.419743592631952	0.9920635546401955
0.010038108639647072	7.449481988628318e-26	3.0546885439521823e9	2.1298063875172378e26	906.5627051777494	917.0755404011072	5.419743592631952	0.9920635546401955
0.010076362506135738	1.5045407984002614e-25	3.0546885439521823e9	2.1298063875172378e26	906.5627051777494	917.0755404011072	5.419743592631952	0.9920635546401955
0.010114762152905717	2.2679331805633047e-25	3.0546885439521823e9	2.1298063875172378e26	906.5627051777494	917.0755404011072	5.419743592631952	0.9920635546401955
0.010153308135505785	3.037560263670114e-25	3.0546885439521823e9	2.1298063875172378e26	906.5627051777494	917.0755404011072	5.419743592631952	0.9920635546401955
0.010192001011601972	3.8233169430509382e-25	3.0546885439521823e9	2.1298063875172378e26	906.5627051777494	917.0755404011072	5.419743592631952	0.9920635546401955
0.010230841340985366	4.614106335417092e-25	3.0546885439521823e9	2.1298063875172378e26	906.5627051777494	917.0755404011072	5.419743592631952	0.9920635546401955
0.010269829685580382	5.405067992696817e-25	3.0546885439521823e9	2.1298063875172378e26	906.5627051777494	917.0755404011072	5.419743592631952	0.9920635546401955
0.01030896660945286	6.204806028937641e-25	3.0546885439521823e9	2.1298063875172378e26	906.5627051777494	917.0755404011072	5.419743592631952	0.9920635546401955
0.010348252678818214	7.013750627628514e-25	3.0546885439521823e9	2.1298063875172378e26	906.5627051777494	917.0755404011072	5.419743592631952	0.9920635546401955
0.010387688462049625	7.831983904398168e-25	3.0546885439521823e9	2.1298063875172378e26	906.5627051777494	917.0755404011072	5.419743592631952	0.9920635546401955
0.010427274529686233	8.659588646944031e-25	3.0546885439521823e9	2.1298063875172378e26	906.5627051777494	917.0755404011072	5.419743592631952	0.9920635546401955
0.010467011454441542	9.496648320339095e-25	3.0546885439521823e9	2.1298063875172378e26	906.5627051777494	917.0755404011072	5.419743592631952	0.9920635546401955
0.010506899811211471	1.0343287246354532e-24	3.0546885439521823e9	2.1298063875172378e26	906.5627051777494	917.0755404011072	5.419743592631952	0.9920635546401955
0.010546940177082824	1.1199692703715782e-24	3.0546885439521823e9	2.1298063875172378e26	906.5627051777494	917.0755404011072	5.419743592631952	0.9920635546401955
0.010587133131341612	1.2065956850728653e-24	3.0546885439521823e9	2.1298063875172378e26	906.5627051777494	917.0755404011072	5.419743592631952	0.9920635546401955
0.01062747925548142	1.2942167618934249e-24	3.0546885439521823e9	2.1298063875172378e26	906.5627051777494	917.0755404011072	5.419743592631952	0.9920635546401955
0.010667979133211826	1.3828413659541316e-24	3.0546885439521823e9	2.1298063875172378e26	906.5627051777494	917.0755404011072	5.419743592631952	0.9920635546401955
0.010708633350466809	1.472478434910446e-24	3.0546885439521823e9	2.1298063875172378e26	906.5627051777494	917.0755404011072	5.419743592631952	0.9920635546401955
0.010749442495413384	1.5631421153504315e-24	3.0546885439521823e9	2.1298063875172378e26	906.5627051777494	917.0755404011072	5.419743592631952	0.9920635546401955
0.010790407158459867	1.654851551795132e-24	3.0546885439521823e9	2.1298063875172378e26	906.5627051777494	917.0755404011072	5.419743592631952	0.9920635546401955
0.01083152793226458	1.7476163331889865e-24	3.0546885439521823e9	2.1298063875172378e26	906.5627051777494	917.0755404011072	5.419743592631952	0.9920635546401955
0.010872805411744386	1.8414458713766288e-24	3.0546885439521823e9	2.1298063875172378e26	906.5627051777494	917.0755404011072	5.419743592631952	0.9920635546401955
0.010914240194083298	1.9363496552298588e-24	3.0546885439521823e9	2.1298063875172378e26	906.5627051777494	917.0755404011072	5.419743592631952	0.9920635546401955
0.010955832878741108	2.0323372526498558e-24	3.0546885439521823e9	2.1298063875172378e26	906.5627051777494	917.0755404011072	5.419743592631952	0.9920635546401955
0.010997584067462034	2.1294209498863048e-24	3.0546885439521823e9	2.1298063875172378e26	906.5627051777494	917.0755404011072	5.419743592631952	0.9920635546401955
0.011039494364283583	2.2276149238251913e-24	3.0546885439521823e9	2.1298063875172378e26	906.5627051777494	917.0755404011072	5.419743592631952	0.9920635546401955
0.01108156437554504	2.3269320592995958e-24	3.0546885439521823e9	2.1298063875172378e26	906.5627051777494	917.0755404011072	5.419743592631952	0.9920635546401955
0.011123794709896408	2.4273853907622348e-24	3.0546885439521823e9	2.1298063875172378e26	906.5627051777494	917.0755404011072	5.419743592631952	0.9920635546401955
0.011166185978307173	2.5289881040183047e-24	3.0546885439521823e9	2.1298063875172378e26	906.5627051777494	917.0755404011072	5.419743592631952	0.9920635546401955
0.011208738794075145	2.6317535379784544e-24	3.0546885439521823e9	2.1298063875172378e26	906.5627051777494	917.0755404011072	5.419743592631952	0.9920635546401955
0.011251453772835322	2.7356951864319732e-24	3.0546885439521823e9	2.1298063875172378e26	906.5627051777494	917.0755404011072	5.419743592631952	0.9920635546401955
0.011294331532568763	2.8408266998403942e-24	3.0546885439521823e9	2.1298063875172378e26	906.5627051777494	917.0755404011072	5.419743592631952	0.9920635546401955
0.011337372693611708	2.9471618871523235e-24	3.0546885439521823e9	2.1298063875172378e26	906.5627051777494	917.0755404011072	5.419743592631952	0.9920635546401955
0.01138057787866427	3.0547147176381533e-24	3.0546885439521823e9	2.1298063875172378e26	906.5627051777494	917.0755404011072	5.419743592631952	0.9920635546401955
0.011423947712799636	3.163499322747058e-24	3.0546885439521823e9	2.1298063875172378e26	906.5627051777494	917.0755404011072	5.419743592631952	0.9920635546401955
0.011467482823473065	3.2735299979849336e-24	3.0546885439521823e9	2.1298063875172378e26	906.5627051777494	917.0755404011072	5.419743592631952	0.9920635546401955
0.011511183840530959	3.3848212048140314e-24	3.0546885439521823e9	2.1298063875172378e26	906.5627051777494	917.0755404011072	5.419743592631952	0.9920635546401955
0.011555051396219979	3.497387572574658e-24	3.0546885439521823e9	2.1298063875172378e26	906.5627051777494	917.0755404011072	5.419743592631952	0.9920635546401955
0.011599086125196195	3.6112439004289774e-24	3.0546885439521823e9	2.1298063875172378e26	906.5627051777494	917.0755404011072	5.419743592631952	0.9920635546401955
0.011643288664534216	3.726405159327181e-24	3.0546885439521823e9	2.1298063875172378e26	906.5627051777494	917.0755404011072	5.419743592631952	0.9920635546401955
0.011687659653736594	3.842886493996962e-24	3.0546885439521823e9	2.1298063875172378e26	906.5627051777494	917.0755404011072	5.419743592631952	0.9920635546401955
0.011732199734742802	3.960703224954753e-24	3.0546885439521823e9	2.1298063875172378e26	906.5627051777494	917.0755404011072	5.419743592631952	0.9920635546401955
0.011776909551938702	4.079870850541417e-24	3.0546885439521823e9	2.1298063875172378e26	906.5627051777494	917.0755404011072	5.419743592631952	0.9920635546401955
0.011821789752165825	4.2004050489807975e-24	3.0546885439521823e9	2.1298063875172378e26	906.5627051777494	917.0755404011072	5.419743592631952	0.9920635546401955
0.011866840984730719	4.3223216804621965e-24	3.0546885439521823e9	2.1298063875172378e26	906.5627051777494	917.0755404011072	5.419743592631952	0.9920635546401955
0.011912063901414364	4.44563678924694e-24	3.0546885439521823e9	2.1298063875172378e26	906.5627051777494	917.0755404011072	5.419743592631952	0.9920635546401955
0.011957459156481526	4.570366605798989e-24	3.0546885439521823e9	2.1298063875172378e26	906.5627051777494	917.0755404011072	5.419743592631952	0.9920635546401955
0.012003027406690441	4.696527548941036e-24	3.0546885439521823e9	2.1298063875172378e26	906.5627051777494	917.0755404011072	5.419743592631952	0.9920635546401955
0.012048769311302015	4.824136228033968e-24	3.0546885439521823e9	2.1298063875172378e26	906.5627051777494	917.0755404011072	5.419743592631952	0.9920635546401955
0.012094685532089547	4.953209445182907e-24	3.0546885439521823e9	2.1298063875172378e26	906.5627051777494	917.0755404011072	5.419743592631952	0.9920635546401955
0.012140776733348275	5.083764197468104e-24	3.0546885439521823e9	2.1298063875172378e26	906.5627051777494	917.0755404011072	5.419743592631952	0.9920635546401955
0.01218704358190497	5.2158176792016285e-24	3.0546885439521823e9	2.1298063875172378e26	906.5627051777494	917.0755404011072	5.419743592631952	0.9920635546401955
0.01223348674712759	5.349387284210184e-24	3.0546885439521823e9	2.1298063875172378e26	906.5627051777494	917.0755404011072	5.419743592631952	0.9920635546401955
0.012280106900934916	5.4844906081440866e-24	3.0546885439521823e9	2.1298063875172378e26	906.5627051777494	917.0755404011072	5.419743592631952	0.9920635546401955
0.012326904717806463	5.621145450813668e-24	3.0546885439521823e9	2.1298063875172378e26	906.5627051777494	917.0755404011072	5.419743592631952	0.9920635546401955
0.012373880874791954	5.759369818551191e-24	3.0546885439521823e9	2.1298063875172378e26	906.5627051777494	917.0755404011072	5.419743592631952	0.9920635546401955
0.012421036051521303	5.89918192660144e-24	3.0546885439521823e9	2.1298063875172378e26	906.5627051777494	917.0755404011072	5.419743592631952	0.9920635546401955
0.012468370930214396	6.0406002015392496e-24	3.0546885439521823e9	2.1298063875172378e26	906.5627051777494	917.0755404011072	5.419743592631952	0.9920635546401955
0.012515886195690978	6.1836432837150465e-24	3.0546885439521823e9	2.1298063875172378e26	906.5627051777494	917.0755404011072	5.419743592631952	0.9920635546401955
0.012563582535380535	6.3283300297286165e-24	3.0546885439521823e9	2.1298063875172378e26	906.5627051777494	917.0755404011072	5.419743592631952	0.9920635546401955
0.012611460639332214	6.474679514931333e-24	3.0546885439521823e9	2.1298063875172378e26	906.5627051777494	917.0755404011072	5.419743592631952	0.9920635546401955
0.012659521200224991	6.62271103595794e-24	3.0546885439521823e9	2.1298063875172378e26	906.5627051777494	917.0755404011072	5.419743592631952	0.9920635546401955
0.0127077649133774	6.772444113286122e-24	3.0546885439521823e9	2.1298063875172378e26	906.5627051777494	917.0755404011072	5.419743592631952	0.9920635546401955
0.012756192476757784	6.92389849382708e-24	3.0546885439521823e9	2.1298063875172378e26	906.5627051777494	917.0755404011072	5.419743592631952	0.9920635546401955
0.012804804590994352	7.077094153545288e-24	3.0546885439521823e9	2.1298063875172378e26	906.5627051777494	917.0755404011072	5.419743592631952	0.9920635546401955
0.012853601959385313	7.232051300108639e-24	3.0546885439521823e9	2.1298063875172378e26	906.5627051777494	917.0755404011072	5.419743592631952	0.9920635546401955
0.01290258528790905	7.388790375569151e-24	3.0546885439521823e9	2.1298063875172378e26	906.5627051777494	917.0755404011072	5.419743592631952	0.9920635546401955
0.012951755285234274	7.547332059074428e-24	3.0546885439521823e9	2.1298063875172378e26	906.5627051777494	917.0755404011072	5.419743592631952	0.9920635546401955
0.013001112662730505	7.707697269611396e-24	3.0546885439521823e9	2.1298063875172378e26	906.5627051777494	917.0755404011072	5.419743592631952	0.9920635546401955
0.013050658134478026	7.869907168779784e-24	3.0546885439521823e9	2.1298063875172378e26	906.5627051777494	917.0755404011072	5.419743592631952	0.9920635546401955
0.013100392417278447	8.033983163599542e-24	3.0546885439521823e9	2.1298063875172378e26	906.5627051777494	917.0755404011072	5.419743592631952	0.9920635546401955
0.013150316230665001	8.199946909349638e-24	3.0546885439521823e9	2.1298063875172378e26	906.5627051777494	917.0755404011072	5.419743592631952	0.9920635546401955
0.01320043029691297	8.367820312439885e-24	3.0546885439521823e9	2.1298063875172378e26	906.5627051777494	917.0755404011072	5.419743592631952	0.9920635546401955
0.01325073534105013	8.537625533315881e-24	3.0546885439521823e9	2.1298063875172378e26	906.5627051777494	917.0755404011072	5.419743592631952	0.9920635546401955
0.013301232090867181	8.70938498939728e-24	3.0546885439521823e9	2.1298063875172378e26	906.5627051777494	917.0755404011072	5.419743592631952	0.9920635546401955
0.013351921276928498	8.883121234447554e-24	3.0546885439521823e9	2.1298063875172378e26	906.5627051777494	917.0755404011072	5.419743592631952	0.9920635546401955
0.013402803632582378	9.058853188606392e-24	3.0546885439521823e9	2.1298063875172378e26	906.5627051777494	917.0755404011072	5.419743592631952	0.9920635546401955
0.013453879893971857	9.236601880504581e-24	3.0546885439521823e9	2.1298063875172378e26	906.5627051777494	917.0755404011072	5.419743592631952	0.9920635546401955
0.013505150800045319	9.416390454658618e-24	3.0546885439521823e9	2.1298063875172378e26	906.5627051777494	917.0755404011072	5.419743592631952	0.9920635546401955
0.013556617092567173	9.598242321196431e-24	3.0546885439521823e9	2.1298063875172378e26	906.5627051777494	917.0755404011072	5.419743592631952	0.9920635546401955
0.013608279516128596	9.782181158905622e-24	3.0546885439521823e9	2.1298063875172378e26	906.5627051777494	917.0755404011072	5.419743592631952	0.9920635546401955
0.013660138818158245	9.96823091831647e-24	3.0546885439521823e9	2.1298063875172378e26	906.5627051777494	917.0755404011072	5.419743592631952	0.9920635546401955
0.013712195748933287	1.0156415824821268e-23	3.0546885439521823e9	2.1298063875172378e26	906.5627051777494	917.0755404011072	5.419743592631952	0.9920635546401955
0.013764451061589933	1.0346760381827555e-23	3.0546885439521823e9	2.1298063875172378e26	906.5627051777494	917.0755404011072	5.419743592631952	0.9920635546401955
0.013816905512134547	1.0539289373949432e-23	3.0546885439521823e9	2.1298063875172378e26	906.5627051777494	917.0755404011072	5.419743592631952	0.9920635546401955
0.013869559859454534	1.0734027870234589e-23	3.0546885439521823e9	2.1298063875172378e26	906.5627051777494	917.0755404011072	5.419743592631952	0.9920635546401955
0.0139224148653293	1.0931001227428448e-23	3.0546885439521823e9	2.1298063875172378e26	906.5627051777494	917.0755404011072	5.419743592631952	0.9920635546401955
0.013975471294441317	1.1130235093276003e-23	3.0546885439521823e9	2.1298063875172378e26	906.5627051777494	917.0755404011072	5.419743592631952	0.9920635546401955
0.01402872991438707	1.1331755409860955e-23	3.0546885439521823e9	2.1298063875172378e26	906.5627051777494	917.0755404011072	5.419743592631952	0.9920635546401955
0.014082191495688444	1.1535588416984694e-23	3.0546885439521823e9	2.1298063875172378e26	906.5627051777494	917.0755404011072	5.419743592631952	0.9920635546401955
0.014135856811803496	1.1741760655581508e-23	3.0546885439521823e9	2.1298063875172378e26	906.5627051777494	917.0755404011072	5.419743592631952	0.9920635546401955
0.014189726639137885	1.1950298971175394e-23	3.0546885439521823e9	2.1298063875172378e26	906.5627051777494	917.0755404011072	5.419743592631952	0.9920635546401955
0.014243801757056048	1.2161230517375375e-23	3.0546885439521823e9	2.1298063875172378e26	906.5627051777494	917.0755404011072	5.419743592631952	0.9920635546401955
0.014298082947892473	1.2374582759411119e-23	3.0546885439521823e9	2.1298063875172378e26	906.5627051777494	917.0755404011072	5.419743592631952	0.9920635546401955
0.014352570996963018	1.2590383477709182e-23	3.0546885439521823e9	2.1298063875172378e26	906.5627051777494	917.0755404011072	5.419743592631952	0.9920635546401955
0.014407266692576214	1.2808660771510067e-23	3.0546885439521823e9	2.1298063875172378e26	906.5627051777494	917.0755404011072	5.419743592631952	0.9920635546401955
0.014462170826044904	1.3029443062527881e-23	3.0546885439521823e9	2.1298063875172378e26	906.5627051777494	917.0755404011072	5.419743592631952	0.9920635546401955
0.014517284191697346	1.3252759098649777e-23	3.0546885439521823e9	2.1298063875172378e26	906.5627051777494	917.0755404011072	5.419743592631952	0.9920635546401955
0.014572607586888928	1.3478637957680043e-23	3.0546885439521823e9	2.1298063875172378e26	906.5627051777494	917.0755404011072	5.419743592631952	0.9920635546401955
0.014628141812013648	1.3707109051126126e-23	3.0546885439521823e9	2.1298063875172378e26	906.5627051777494	917.0755404011072	5.419743592631952	0.9920635546401955
0.014683887670515705	1.3938202128028267e-23	3.0546885439521823e9	2.1298063875172378e26	906.5627051777494	917.0755404011072	5.419743592631952	0.9920635546401955
0.01473984596890111	1.41719472788331e-23	3.0546885439521823e9	2.1298063875172378e26	906.5627051777494	917.0755404011072	5.419743592631952	0.9920635546401955
0.014796017516749294	1.4408374939311426e-23	3.0546885439521823e9	2.1298063875172378e26	906.5627051777494	917.0755404011072	5.419743592631952	0.9920635546401955
0.01485240312672508	1.4647515894522322e-23	3.0546885439521823e9	2.1298063875172378e26	906.5627051777494	917.0755404011072	5.419743592631952	0.9920635546401955
0.014909003614590048	1.4889401282820003e-23	3.0546885439521823e9	2.1298063875172378e26	906.5627051777494	917.0755404011072	5.419743592631952	0.9920635546401955
0.014965819799214608	1.5134062599909446e-23	3.0546885439521823e9	2.1298063875172378e26	906.5627051777494	917.0755404011072	5.419743592631952	0.9920635546401955
0.015022852502589765	1.538153170294707e-23	3.0546885439521823e9	2.1298063875172378e26	906.5627051777494	917.0755404011072	5.419743592631952	0.9920635546401955
0.015080102549839023	1.5631840814688924e-23	3.0546885439521823e9	2.1298063875172378e26	906.5627051777494	917.0755404011072	5.419743592631952	0.9920635546401955
0.01513757076923032	1.5885022527686303e-23	3.0546885439521823e9	2.1298063875172378e26	906.5627051777494	917.0755404011072	5.419743592631952	0.9920635546401955
0.015195257992187954	1.614110980852943e-23	3.0546885439521823e9	2.1298063875172378e26	906.5627051777494	917.0755404011072	5.419743592631952	0.9920635546401955
0.01525316505330484	1.640013600214095e-23	3.0546885439521823e9	2.1298063875172378e26	906.5627051777494	917.0755404011072	5.419743592631952	0.9920635546401955
0.015311292790354238	1.6662134836116245e-23	3.0546885439521823e9	2.1298063875172378e26	906.5627051777494	917.0755404011072	5.419743592631952	0.9920635546401955
0.01536964204430211	1.6927140425116138e-23	3.0546885439521823e9	2.1298063875172378e26	906.5627051777494	917.0755404011072	5.419743592631952	0.9920635546401955
0.015428213659319219	1.719518727530859e-23	3.0546885439521823e9	2.1298063875172378e26	906.5627051777494	917.0755404011072	5.419743592631952	0.9920635546401955
0.015487008482793349	1.7466310288861807e-23	3.0546885439521823e9	2.1298063875172378e26	906.5627051777494	917.0755404011072	5.419743592631952	0.9920635546401955
0.015546027365341572	1.77405447684888e-23	3.0546885439521823e9	2.1298063875172378e26	906.5627051777494	917.0755404011072	5.419743592631952	0.9920635546401955
0.015605271160822467	1.8017926422043767e-23	3.0546885439521823e9	2.1298063875172378e26	906.5627051777494	917.0755404011072	5.419743592631952	0.9920635546401955
0.015664740726348762	1.829849136717293e-23	3.0546885439521823e9	2.1298063875172378e26	906.5627051777494	917.0755404011072	5.419743592631952	0.9920635546401955
0.015724436922299315	1.8582276136015353e-23	3.0546885439521823e9	2.1298063875172378e26	906.5627051777494	917.0755404011072	5.419743592631952	0.9920635546401955
0.015784360612331842	1.8869317679961175e-23	3.0546885439521823e9	2.1298063875172378e26	906.5627051777494	917.0755404011072	5.419743592631952	0.9920635546401955
0.01584451266339535	1.915965337446269e-23	3.0546885439521823e9	2.1298063875172378e26	906.5627051777494	917.0755404011072	5.419743592631952	0.9920635546401955
0.015904893945742665	1.9453321023900846e-23	3.0546885439521823e9	2.1298063875172378e26	906.5627051777494	917.0755404011072	5.419743592631952	0.9920635546401955
0.01596550533294301	1.9750358866507807e-23	3.0546885439521823e9	2.1298063875172378e26	906.5627051777494	917.0755404011072	5.419743592631952	0.9920635546401955
0.0160263477018947	2.0050805579346007e-23	3.0546885439521823e9	2.1298063875172378e26	906.5627051777494	917.0755404011072	5.419743592631952	0.9920635546401955
