r[m]	M[Msun]	rho[g/cm^3]	P[N/m^2]	n_e[pm^-3]	n_p[pm^-3]	muF_e[MeV]	B
0.00999999999999999	-1.1699069372110562e-39	2.0141225798603925e8	5.490503575696181e24	59.83540725461562	60.552077177781804	1.9309218695638755	0.9969681556467361
0.010039500168772518	5.104396649556433e-27	2.0141225798603925e8	5.490503575696181e24	59.83540725461562	60.552077177781804	1.9309218695638755	0.9969681556467361
0.010079156363878355	1.0372279572431308e-26	2.0141225798603925e8	5.490503575696181e24	59.83540725461562	60.552077177781804	1.9309218695638755	0.9969681556467361
0.010118969201624105	1.578493627906348e-26	2.0141225798603925e8	5.490503575696181e24	59.83540725461562	60.552077177781804	1.9309218695638755	0.9969681556467361
0.010158939300750923	2.132318333153197e-26	2.0141225798603925e8	5.490503575696181e24	59.83540725461562	60.552077177781804	1.9309218695638755	0.9969681556467361
0.010199067282443878	2.696735844001327e-26	2.0141225798603925e8	5.490503575696181e24	59.83540725461562	60.552077177781804	1.9309218695638755	0.9969681556467361
0.010239353770341771	3.269731244573539e-26	2.0141225798603925e8	5.490503575696181e24	59.83540725461562	60.552077177781804	1.9309218695638755	0.9969681556467361
0.010279799390546785	3.8492401188829966e-26	2.0141225798603925e8	5.490503575696181e24	59.83540725461562	60.552077177781804	1.9309218695638755	0.9969681556467361
0.010320404771634178	4.4331477259582266e-26	2.0141225798603925e8	5.490503575696181e24	59.83540725461562	60.552077177781804	1.9309218695638755	0.9969681556467361
0.010361170544662214	5.0192881631557544e-26	2.0141225798603925e8	5.490503575696181e24	59.83540725461562	60.552077177781804	1.9309218695638755	0.9969681556467361
0.010402097343181727	5.605443517494712e-26	2.0141225798603925e8	5.490503575696181e24	59.83540725461562	60.552077177781804	1.9309218695638755	0.9969681556467361
0.010443185803246125	6.189343004866e-26	2.0141225798603925e8	5.490503575696181e24	59.83540725461562	60.552077177781804	1.9309218695638755	0.9969681556467361
0.010484436563421235	6.768932047612976e-26	2.0141225798603925e8	5.490503575696181e24	59.83540725461562	60.552077177781804	1.9309218695638755	0.9969681556467361
0.010525850264795194	7.358955181344075e-26	2.0141225798603925e8	5.490503575696181e24	59.83540725461562	60.552077177781804	1.9309218695638755	0.9969681556467361
0.010567427550988573	7.967345590924105e-26	2.0141225798603925e8	5.490503575696181e24	59.83540725461562	60.552077177781804	1.9309218695638755	0.9969681556467361
0.010609169068164127	8.591830604472134e-26	2.0141225798603925e8	5.490503575696181e24	59.83540725461562	60.552077177781804	1.9309218695638755	0.9969681556467361
0.010651075465037005	9.230080597952735e-26	2.0141225798603925e8	5.490503575696181e24	59.83540725461562	60.552077177781804	1.9309218695638755	0.9969681556467361
0.010693147392884796	9.87970804055855e-26	2.0141225798603925e8	5.490503575696181e24	59.83540725461562	60.552077177781804	1.9309218695638755	0.9969681556467361
0.010735385505557601	1.0538266526383302e-25	2.0141225798603925e8	5.490503575696181e24	59.83540725461562	60.552077177781804	1.9309218695638755	0.9969681556467361
0.010777790459488372	1.1203249792206808e-25	2.0141225798603925e8	5.490503575696181e24	59.83540725461562	60.552077177781804	1.9309218695638755	0.9969681556467361
0.010820362913702848	1.1872090721196963e-25	2.0141225798603925e8	5.490503575696181e24	59.83540725461562	60.552077177781804	1.9309218695638755	0.9969681556467361
0.010863103529829976	1.254216033235536e-25	2.0141225798603925e8	5.490503575696181e24	59.83540725461562	60.552077177781804	1.9309218695638755	0.9969681556467361
0.01090601297211215	1.3210766755506738e-25	2.0141225798603925e8	5.490503575696181e24	59.83540725461562	60.552077177781804	1.9309218695638755	0.9969681556467361
0.01094909190741549	1.3875154191644103e-25	2.0141225798603925e8	5.490503575696181e24	59.83540725461562	60.552077177781804	1.9309218695638755	0.9969681556467361
0.010992341005240375	1.4543113835883713e-25	2.0141225798603925e8	5.490503575696181e24	59.83540725461562	60.552077177781804	1.9309218695638755	0.9969681556467361
0.011035760937731594	1.5233835809901161e-25	2.0141225798603925e8	5.490503575696181e24	59.83540725461562	60.552077177781804	1.9309218695638755	0.9969681556467361
0.011079352379688963	1.5946648298827983e-25	2.0141225798603925e8	5.490503575696181e24	59.83540725461562	60.552077177781804	1.9309218695638755	0.9969681556467361
0.011123116008577768	1.6680271830099162e-25	2.0141225798603925e8	5.490503575696181e24	59.83540725461562	60.552077177781804	1.9309218695638755	0.9969681556467361
0.011167052504539247	1.743339297541932e-25	2.0141225798603925e8	5.490503575696181e24	59.83540725461562	60.552077177781804	1.9309218695638755	0.9969681556467361
0.011211162550401348	1.820466377272905e-25	2.0141225798603925e8	5.490503575696181e24	59.83540725461562	60.552077177781804	1.9309218695638755	0.9969681556467361
0.01125544683168906	1.8992701139806964e-25	2.0141225798603925e8	5.490503575696181e24	59.83540725461562	60.552077177781804	1.9309218695638755	0.9969681556467361
0.011299906036635256	1.9796086279411451e-25	2.0141225798603925e8	5.490503575696181e24	59.83540725461562	60.552077177781804	1.9309218695638755	0.9969681556467361
0.011344540856191292	2.0613364075836654e-25	2.0141225798603925e8	5.490503575696181e24	59.83540725461562	60.552077177781804	1.9309218695638755	0.9969681556467361
0.011389351984037933	2.144304248277809e-25	2.0141225798603925e8	5.490503575696181e24	59.83540725461562	60.552077177781804	1.9309218695638755	0.9969681556467361
0.011434340116595857	2.228359190237839e-25	2.0141225798603925e8	5.490503575696181e24	59.83540725461562	60.552077177781804	1.9309218695638755	0.9969681556467361
0.011479505953036663	2.3133444555353082e-25	2.0141225798603925e8	5.490503575696181e24	59.83540725461562	60.552077177781804	1.9309218695638755	0.9969681556467361
0.011524850195293684	2.3990993842064476e-25	2.0141225798603925e8	5.490503575696181e24	59.83540725461562	60.552077177781804	1.9309218695638755	0.9969681556467361
0.011570373548072858	2.4854593694427775e-25	2.0141225798603925e8	5.490503575696181e24	59.83540725461562	60.552077177781804	1.9309218695638755	0.9969681556467361
0.011616076718863869	2.5722557918532307e-25	2.0141225798603925e8	5.490503575696181e24	59.83540725461562	60.552077177781804	1.9309218695638755	0.9969681556467361
0.011661960417950847	2.6593159527839945e-25	2.0141225798603925e8	5.490503575696181e24	59.83540725461562	60.552077177781804	1.9309218695638755	0.9969681556467361
0.011708025358423609	2.7464630066855084e-25	2.0141225798603925e8	5.490503575696181e24	59.83540725461562	60.552077177781804	1.9309218695638755	0.9969681556467361
0.011754272256188688	2.8335158925125178e-25	2.0141225798603925e8	5.490503575696181e24	59.83540725461562	60.552077177781804	1.9309218695638755	0.9969681556467361
0.011800701829980413	2.920289264144811e-25	2.0141225798603925e8	5.490503575696181e24	59.83540725461562	60.552077177781804	1.9309218695638755	0.9969681556467361
0.011847314801372265	3.0065934198161457e-25	2.0141225798603925e8	5.490503575696181e24	59.83540725461562	60.552077177781804	1.9309218695638755	0.9969681556467361
0.011894111894787814	3.092234230536868e-25	2.0141225798603925e8	5.490503575696181e24	59.83540725461562	60.552077177781804	1.9309218695638755	0.9969681556467361
0.011941093837512164	3.1776598192045076e-25	2.0141225798603925e8	5.490503575696181e24	59.83540725461562	60.552077177781804	1.9309218695638755	0.9969681556467361
0.011988261359703198	3.2657190081836514e-25	2.0141225798603925e8	5.490503575696181e24	59.83540725461562	60.552077177781804	1.9309218695638755	0.9969681556467361
0.012035615194402896	3.3566233736541465e-25	2.0141225798603925e8	5.490503575696181e24	59.83540725461562	60.552077177781804	1.9309218695638755	0.9969681556467361
0.01208315607754891	3.4501927597462165e-25	2.0141225798603925e8	5.490503575696181e24	59.83540725461562	60.552077177781804	1.9309218695638755	0.9969681556467361
0.01213088474798571	3.5462422717805277e-25	2.0141225798603925e8	5.490503575696181e24	59.83540725461562	60.552077177781804	1.9309218695638755	0.9969681556467361
0.012178801947476265	3.644582195785208e-25	2.0141225798603925e8	5.490503575696181e24	59.83540725461562	60.552077177781804	1.9309218695638755	0.9969681556467361
0.012226908420713518	3.7450179168499477e-25	2.0141225798603925e8	5.490503575696181e24	59.83540725461562	60.552077177781804	1.9309218695638755	0.9969681556467361
0.012275204915331912	3.8473498363022635e-25	2.0141225798603925e8	5.490503575696181e24	59.83540725461562	60.552077177781804	1.9309218695638755	0.9969681556467361
0.012323692181919211	3.951373287690645e-25	2.0141225798603925e8	5.490503575696181e24	59.83540725461562	60.552077177781804	1.9309218695638755	0.9969681556467361
0.012372370974027864	4.056878451557163e-25	2.0141225798603925e8	5.490503575696181e24	59.83540725461562	60.552077177781804	1.9309218695638755	0.9969681556467361
0.012421242048186908	4.163650268985519e-25	2.0141225798603925e8	5.490503575696181e24	59.83540725461562	60.552077177781804	1.9309218695638755	0.9969681556467361
0.012470306163913692	4.271468353906654e-25	2.0141225798603925e8	5.490503575696181e24	59.83540725461562	60.552077177781804	1.9309218695638755	0.9969681556467361
0.012519564083725614	4.380106904145897e-25	2.0141225798603925e8	5.490503575696181e24	59.83540725461562	60.552077177781804	1.9309218695638755	0.9969681556467361
0.012569016573152179	4.489334611195519e-25	2.0141225798603925e8	5.490503575696181e24	59.83540725461562	60.552077177781804	1.9309218695638755	0.9969681556467361
0.012618664400746604	4.598914568694028e-25	2.0141225798603925e8	5.490503575696181e24	59.83540725461562	60.552077177781804	1.9309218695638755	0.9969681556467361
0.012668508338097944	4.708604179597304e-25	2.0141225798603925e8	5.490503575696181e24	59.83540725461562	60.552077177781804	1.9309218695638755	0.9969681556467361
0.012718549159843051	4.818155062022547e-25	2.0141225798603925e8	5.490503575696181e24	59.83540725461562	60.552077177781804	1.9309218695638755	0.9969681556467361
0.012768787643678552	4.927312953747916e-25	2.0141225798603925e8	5.490503575696181e24	59.83540725461562	60.552077177781804	1.9309218695638755	0.9969681556467361
0.01281922457037314	5.035817615350698e-25	2.0141225798603925e8	5.490503575696181e24	59.83540725461562	60.552077177781804	1.9309218695638755	0.9969681556467361
0.012869860723779412	5.143402731964187e-25	2.0141225798603925e8	5.490503575696181e24	59.83540725461562	60.552077177781804	1.9309218695638755	0.9969681556467361
0.012920696890846236	5.251120428637359e-25	2.0141225798603925e8	5.490503575696181e24	59.83540725461562	60.552077177781804	1.9309218695638755	0.9969681556467361
0.012971733861630948	5.360429675610289e-25	2.0141225798603925e8	5.490503575696181e24	59.83540725461562	60.552077177781804	1.9309218695638755	0.9969681556467361
0.013022972429311571	5.471348249850711e-25	2.0141225798603925e8	5.490503575696181e24	59.83540725461562	60.552077177781804	1.9309218695638755	0.9969681556467361
0.013074413390199352	5.583891829317183e-25	2.0141225798603925e8	5.490503575696181e24	59.83540725461562	60.552077177781804	1.9309218695638755	0.9969681556467361
0.013126057543750822	5.698076227678505e-25	2.0141225798603925e8	5.490503575696181e24	59.83540725461562	60.552077177781804	1.9309218695638755	0.9969681556467361
0.013177905692580432	5.813917395434196e-25	2.0141225798603925e8	5.490503575696181e24	59.83540725461562	60.552077177781804	1.9309218695638755	0.9969681556467361
0.013229958642472974	5.931431421043574e-25	2.0141225798603925e8	5.490503575696181e24	59.83540725461562	60.552077177781804	1.9309218695638755	0.9969681556467361
0.013282217202396047	6.050634532063869e-25	2.0141225798603925e8	5.490503575696181e24	59.83540725461562	60.552077177781804	1.9309218695638755	0.9969681556467361
0.013334682184512852	6.1715430962981715e-25	2.0141225798603925e8	5.490503575696181e24	59.83540725461562	60.552077177781804	1.9309218695638755	0.9969681556467361
0.013387354404194482	6.2941736229514305e-25	2.0141225798603925e8	5.490503575696181e24	59.83540725461562	60.552077177781804	1.9309218695638755	0.9969681556467361
0.013440234680032817	6.418542763796975e-25	2.0141225798603925e8	5.490503575696181e24	59.83540725461562	60.552077177781804	1.9309218695638755	0.9969681556467361
0.013493323833853188	6.544667314351886e-25	2.0141225798603925e8	5.490503575696181e24	59.83540725461562	60.552077177781804	1.9309218695638755	0.9969681556467361
0.013546622690727091	6.6725642150618265e-25	2.0141225798603925e8	5.490503575696181e24	59.83540725461562	60.552077177781804	1.9309218695638755	0.9969681556467361
0.013600132078985243	6.802250552496099e-25	2.0141225798603925e8	5.490503575696181e24	59.83540725461562	60.552077177781804	1.9309218695638755	0.9969681556467361
0.013653852830230104	6.933743560551011e-25	2.0141225798603925e8	5.490503575696181e24	59.83540725461562	60.552077177781804	1.9309218695638755	0.9969681556467361
0.013707785779349044	7.067060621664316e-25	2.0141225798603925e8	5.490503575696181e24	59.83540725461562	60.552077177781804	1.9309218695638755	0.9969681556467361
0.01376193176452724	7.202219268038748e-25	2.0141225798603925e8	5.490503575696181e24	59.83540725461562	60.552077177781804	1.9309218695638755	0.9969681556467361
0.013816291627260672	7.339237182875494e-25	2.0141225798603925e8	5.490503575696181e24	59.83540725461562	60.552077177781804	1.9309218695638755	0.9969681556467361
0.013870866212369397	7.478132201618193e-25	2.0141225798603925e8	5.490503575696181e24	59.83540725461562	60.552077177781804	1.9309218695638755	0.9969681556467361
0.013925656368010377	7.618922313205749e-25	2.0141225798603925e8	5.490503575696181e24	59.83540725461562	60.552077177781804	1.9309218695638755	0.9969681556467361
0.013980662945690845	7.761625661336454e-25	2.0141225798603925e8	5.490503575696181e24	59.83540725461562	60.552077177781804	1.9309218695638755	0.9969681556467361
0.01403588680028145	7.906260545741628e-25	2.0141225798603925e8	5.490503575696181e24	59.83540725461562	60.552077177781804	1.9309218695638755	0.9969681556467361
0.014091328790029776	8.052845423470349e-25	2.0141225798603925e8	5.490503575696181e24	59.83540725461562	60.552077177781804	1.9309218695638755	0.9969681556467361
0.014146989776573315	8.201398910183022e-25	2.0141225798603925e8	5.490503575696181e24	59.83540725461562	60.552077177781804	1.9309218695638755	0.9969681556467361
0.014202870624953103	8.351939781456944e-25	2.0141225798603925e8	5.490503575696181e24	59.83540725461562	60.552077177781804	1.9309218695638755	0.9969681556467361
0.014258972203627108	8.504486974101624e-25	2.0141225798603925e8	5.490503575696181e24	59.83540725461562	60.552077177781804	1.9309218695638755	0.9969681556467361
0.014315295384483659	8.659059587484649e-25	2.0141225798603925e8	5.490503575696181e24	59.83540725461562	60.552077177781804	1.9309218695638755	0.9969681556467361
0.014371841042855231	8.815676884869115e-25	2.0141225798603925e8	5.490503575696181e24	59.83540725461562	60.552077177781804	1.9309218695638755	0.9969681556467361
0.014428610057531707	8.974358294760243e-25	2.0141225798603925e8	5.490503575696181e24	59.83540725461562	60.552077177781804	1.9309218695638755	0.9969681556467361
0.01448560331077426	9.135123412264385e-25	2.0141225798603925e8	5.490503575696181e24	59.83540725461562	60.552077177781804	1.9309218695638755	0.9969681556467361
0.01454282168832901	9.29799200045821e-25	2.0141225798603925e8	5.490503575696181e24	59.83540725461562	60.552077177781804	1.9309218695638755	0.9969681556467361
0.01460026607944073	9.462983991768998e-25	2.0141225798603925e8	5.490503575696181e24	59.83540725461562	60.552077177781804	1.9309218695638755	0.9969681556467361
0.014657937376866907	9.630119489366796e-25	2.0141225798603925e8	5.490503575696181e24	59.83540725461562	60.552077177781804	1.9309218695638755	0.9969681556467361
0.014715836476891248	9.799418768566139e-25	2.0141225798603925e8	5.490503575696181e24	59.83540725461562	60.552077177781804	1.9309218695638755	0.9969681556467361
0.014773964279337866	9.970902278240836e-25	2.0141225798603925e8	5.490503575696181e24	59.83540725461562	60.552077177781804	1.9309218695638755	0.9969681556467361
0.014832321687585182	1.0144590642249147e-24	2.0141225798603925e8	5.490503575696181e24	59.83540725461562	60.552077177781804	1.9309218695638755	0.9969681556467361
0.014890909608579927	1.0320504660870635e-24	2.0141225798603925e8	5.490503575696181e24	59.83540725461562	60.552077177781804	1.9309218695638755	0.9969681556467361
0.014949728952851467	1.0498665312255351e-24	2.0141225798603925e8	5.490503575696181e24	59.83540725461562	60.552077177781804	1.9309218695638755	0.9969681556467361
0.01500878063452559	1.067909375388295e-24	2.0141225798603925e8	5.490503575696181e24	59.83540725461562	60.552077177781804	1.9309218695638755	0.9969681556467361
0.01506806557133895	1.0861811324035302e-24	2.0141225798603925e8	5.490503575696181e24	59.83540725461562	60.552077177781804	1.9309218695638755	0.9969681556467361
0.015127584684653295	1.1046839543280245e-24	2.0141225798603925e8	5.490503575696181e24	59.83540725461562	60.552077177781804	1.9309218695638755	0.9969681556467361
0.015187338899469688	1.1234200115966996e-24	2.0141225798603925e8	5.490503575696181e24	59.83540725461562	60.552077177781804	1.9309218695638755	0.9969681556467361
0.015247329144443154	1.1423914931734855e-24	2.0141225798603925e8	5.490503575696181e24	59.83540725461562	60.552077177781804	1.9309218695638755	0.9969681556467361
0.015307556351896737	1.1616006067031942e-24	2.0141225798603925e8	5.490503575696181e24	59.83540725461562	60.552077177781804	1.9309218695638755	0.9969681556467361
0.01536802145783623	1.1810495786648163e-24	2.0141225798603925e8	5.490503575696181e24	59.83540725461562	60.552077177781804	1.9309218695638755	0.9969681556467361
0.01542872540196467	1.2007406545259583e-24	2.0141225798603925e8	5.490503575696181e24	59.83540725461562	60.552077177781804	1.9309218695638755	0.9969681556467361
0.015489669127696868	1.2206760988985148e-24	2.0141225798603925e8	5.490503575696181e24	59.83540725461562	60.552077177781804	1.9309218695638755	0.9969681556467361
0.015550853582174338	1.2408581956957069e-24	2.0141225798603925e8	5.490503575696181e24	59.83540725461562	60.552077177781804	1.9309218695638755	0.9969681556467361
0.015612279716279617	1.2612892482901677e-24	2.0141225798603925e8	5.490503575696181e24	59.83540725461562	60.552077177781804	1.9309218695638755	0.9969681556467361
0.015673948484651312	1.2819715796735165e-24	2.0141225798603925e8	5.490503575696181e24	59.83540725461562	60.552077177781804	1.9309218695638755	0.9969681556467361
0.01573586084569888	1.302907532617116e-24	2.0141225798603925e8	5.490503575696181e24	59.83540725461562	60.552077177781804	1.9309218695638755	0.9969681556467361
0.015798017761617433	1.324099469834103e-24	2.0141225798603925e8	5.490503575696181e24	59.83540725461562	60.552077177781804	1.9309218695638755	0.9969681556467361
0.015860420198402964	1.34554977414286e-24	2.0141225798603925e8	5.490503575696181e24	59.83540725461562	60.552077177781804	1.9309218695638755	0.9969681556467361
0.015923069125866978	1.3672608486315656e-24	2.0141225798603925e8	5.490503575696181e24	59.83540725461562	60.552077177781804	1.9309218695638755	0.9969681556467361
0.01598596551765182	1.389235116824296e-24	2.0141225798603925e8	5.490503575696181e24	59.83540725461562	60.552077177781804	1.9309218695638755	0.9969681556467361
0.01604911035124573	1.4114750228483482e-24	2.0141225798603925e8	5.490503575696181e24	59.83540725461562	60.552077177781804	1.9309218695638755	0.9969681556467361
0.01611250460799798	1.433983031602911e-24	2.0141225798603925e8	5.490503575696181e24	59.83540725461562	60.552077177781804	1.9309218695638755	0.9969681556467361
0.016176149273134387	1.4567616289292118e-24	2.0141225798603925e8	5.490503575696181e24	59.83540725461562	60.552077177781804	1.9309218695638755	0.9969681556467361
0.016240045335772234	1.4798133217817998e-24	2.0141225798603925e8	5.490503575696181e24	59.83540725461562	60.552077177781804	1.9309218695638755	0.9969681556467361
