r[m]	M[Msun]	rho[g/cm^3]	P[N/m^2]	n_e[pm^-3]	n_p[pm^-3]	muF_e[MeV]	B
0.009999999999999985	-1.922950483002081e-39	2.0754258955792814e8	5.770743844610662e24	62.06878080400913	187.19788025089284	1.9596295547306863	0.9969062872159608
0.010039500419132836	5.259790715615693e-27	2.0754258955792814e8	5.770743844610662e24	62.06878080400913	187.19788025089284	1.9596295547306863	0.9969062872159608
0.010079156866576814	1.0688041464144988e-26	2.0754258955792814e8	5.770743844610662e24	62.06878080400913	187.19788025089284	1.9596295547306863	0.9969062872159608
0.010118969958650371	1.6265466200505832e-26	2.0754258955792814e8	5.770743844610662e24	62.06878080400913	187.19788025089284	1.9596295547306863	0.9969062872159608
0.010158940314106314	2.1972293498991943e-26	2.0754258955792814e8	5.770743844610662e24	62.06878080400913	187.19788025089284	1.9596295547306863	0.9969062872159608
0.010199068554141556	2.7788258407554996e-26	2.0754258955792814e8	5.770743844610662e24	62.06878080400913	187.19788025089284	1.9596295547306863	0.9969062872159608
0.010239355302406885	3.369259418504313e-26	2.0754258955792814e8	5.770743844610662e24	62.06878080400913	187.19788025089284	1.9596295547306863	0.9969062872159608
0.010279801185016412	3.966402391979047e-26	2.0754258955792814e8	5.770743844610662e24	62.06878080400913	187.19788025089284	1.9596295547306863	0.9969062872159608
0.010320406830557466	4.568075202808326e-26	2.0754258955792814e8	5.770743844610662e24	62.06878080400913	187.19788025089284	1.9596295547306863	0.9969062872159608
0.010361172870100282	5.172045563082099e-26	2.0754258955792814e8	5.770743844610662e24	62.06878080400913	187.19788025089284	1.9596295547306863	0.9969062872159608
0.010402099937207972	5.776027580681858e-26	2.0754258955792814e8	5.770743844610662e24	62.06878080400913	187.19788025089284	1.9596295547306863	0.9969062872159608
0.010443188667946125	6.377680872101854e-26	2.0754258955792814e8	5.770743844610662e24	62.06878080400913	187.19788025089284	1.9596295547306863	0.9969062872159608
0.010484439700892816	6.974896192914795e-26	2.0754258955792814e8	5.770743844610662e24	62.06878080400913	187.19788025089284	1.9596295547306863	0.9969062872159608
0.010525853677148653	7.582908957539284e-26	2.0754258955792814e8	5.770743844610662e24	62.06878080400913	187.19788025089284	1.9596295547306863	0.9969062872159608
0.010567431240346498	8.209842435211355e-26	2.0754258955792814e8	5.770743844610662e24	62.06878080400913	187.19788025089284	1.9596295547306863	0.9969062872159608
0.010609173036661585	8.853354250578294e-26	2.0754258955792814e8	5.770743844610662e24	62.06878080400913	187.19788025089284	1.9596295547306863	0.9969062872159608
0.010651079714821694	9.511043330671228e-26	2.0754258955792814e8	5.770743844610662e24	62.06878080400913	187.19788025089284	1.9596295547306863	0.9969062872159608
0.010693151926116981	1.018044892102893e-25	2.0754258955792814e8	5.770743844610662e24	62.06878080400913	187.19788025089284	1.9596295547306863	0.9969062872159608
0.010735390324410272	1.0859049587698905e-25	2.0754258955792814e8	5.770743844610662e24	62.06878080400913	187.19788025089284	1.9596295547306863	0.9969062872159608
0.010777795566147125	1.154426220491657e-25	2.0754258955792814e8	5.770743844610662e24	62.06878080400913	187.19788025089284	1.9596295547306863	0.9969062872159608
0.010820368310366226	1.2233440928282001e-25	2.0754258955792814e8	5.770743844610662e24	62.06878080400913	187.19788025089284	1.9596295547306863	0.9969062872159608
0.010863109218709357	1.2923876153228293e-25	2.0754258955792814e8	5.770743844610662e24	62.06878080400913	187.19788025089284	1.9596295547306863	0.9969062872159608
0.01090601895543181	1.3612793458601151e-25	2.0754258955792814e8	5.770743844610662e24	62.06878080400913	187.19788025089284	1.9596295547306863	0.9969062872159608
0.010949098187412848	1.429735253514513e-25	2.0754258955792814e8	5.770743844610662e24	62.06878080400913	187.19788025089284	1.9596295547306863	0.9969062872159608
0.010992347584165806	1.498568976367498e-25	2.0754258955792814e8	5.770743844610662e24	62.06878080400913	187.19788025089284	1.9596295547306863	0.9969062872159608
0.011035767817848615	1.569750056039275e-25	2.0754258955792814e8	5.770743844610662e24	62.06878080400913	187.19788025089284	1.9596295547306863	0.9969062872159608
0.011079359563274403	1.6432067684724497e-25	2.0754258955792814e8	5.770743844610662e24	62.06878080400913	187.19788025089284	1.9596295547306863	0.9969062872159608
0.011123123497921696	1.718807237176259e-25	2.0754258955792814e8	5.770743844610662e24	62.06878080400913	187.19788025089284	1.9596295547306863	0.9969062872159608
0.011167060301945088	1.7964160859976042e-25	2.0754258955792814e8	5.770743844610662e24	62.06878080400913	187.19788025089284	1.9596295547306863	0.9969062872159608
0.011211170658185955	1.8758943795462733e-25	2.0754258955792814e8	5.770743844610662e24	62.06878080400913	187.19788025089284	1.9596295547306863	0.9969062872159608
0.011255455252182784	1.9570995627581445e-25	2.0754258955792814e8	5.770743844610662e24	62.06878080400913	187.19788025089284	1.9596295547306863	0.9969062872159608
0.011299914772182012	2.0398853995864443e-25	2.0754258955792814e8	5.770743844610662e24	62.06878080400913	187.19788025089284	1.9596295547306863	0.9969062872159608
0.011344549909148637	2.1241019108081484e-25	2.0754258955792814e8	5.770743844610662e24	62.06878080400913	187.19788025089284	1.9596295547306863	0.9969062872159608
0.01138936135677713	2.2095953109346574e-25	2.0754258955792814e8	5.770743844610662e24	62.06878080400913	187.19788025089284	1.9596295547306863	0.9969062872159608
0.011434349811501952	2.2962079442135327e-25	2.0754258955792814e8	5.770743844610662e24	62.06878080400913	187.19788025089284	1.9596295547306863	0.9969062872159608
0.011479515972508503	2.3837782197107214e-25	2.0754258955792814e8	5.770743844610662e24	62.06878080400913	187.19788025089284	1.9596295547306863	0.9969062872159608
0.01152486054174414	2.472140545460397e-25	2.0754258955792814e8	5.770743844610662e24	62.06878080400913	187.19788025089284	1.9596295547306863	0.9969062872159608
0.011570384223928797	2.561125261669053e-25	2.0754258955792814e8	5.770743844610662e24	62.06878080400913	187.19788025089284	1.9596295547306863	0.9969062872159608
0.011616087726566082	2.6505585729630195e-25	2.0754258955792814e8	5.770743844610662e24	62.06878080400913	187.19788025089284	1.9596295547306863	0.9969062872159608
0.011661971759954417	2.7402624796657853e-25	2.0754258955792814e8	5.770743844610662e24	62.06878080400913	187.19788025089284	1.9596295547306863	0.9969062872159608
0.011708037037197786	2.8300547080914763e-25	2.0754258955792814e8	5.770743844610662e24	62.06878080400913	187.19788025089284	1.9596295547306863	0.9969062872159608
0.011754284274217012	2.919748639843162e-25	2.0754258955792814e8	5.770743844610662e24	62.06878080400913	187.19788025089284	1.9596295547306863	0.9969062872159608
0.011800714189760792	3.009153240101319e-25	2.0754258955792814e8	5.770743844610662e24	62.06878080400913	187.19788025089284	1.9596295547306863	0.9969062872159608
0.011847327505417048	3.0980729848901017e-25	2.0754258955792814e8	5.770743844610662e24	62.06878080400913	187.19788025089284	1.9596295547306863	0.9969062872159608
0.011894124945623863	3.186307787306542e-25	2.0754258955792814e8	5.770743844610662e24	62.06878080400913	187.19788025089284	1.9596295547306863	0.9969062872159608
0.01194110723768088	3.274336871821737e-25	2.0754258955792814e8	5.770743844610662e24	62.06878080400913	187.19788025089284	1.9596295547306863	0.9969062872159608
0.011988275111760753	3.3650915209482076e-25	2.0754258955792814e8	5.770743844610662e24	62.06878080400913	187.19788025089284	1.9596295547306863	0.9969062872159608
0.012035629300920204	3.458776319368453e-25	2.0754258955792814e8	5.770743844610662e24	62.06878080400913	187.19788025089284	1.9596295547306863	0.9969062872159608
0.012083170541111552	3.555205572844038e-25	2.0754258955792814e8	5.770743844610662e24	62.06878080400913	187.19788025089284	1.9596295547306863	0.9969062872159608
0.012130899571194318	3.6541887030385534e-25	2.0754258955792814e8	5.770743844610662e24	62.06878080400913	187.19788025089284	1.9596295547306863	0.9969062872159608
0.01217881713294639	3.755530164567423e-25	2.0754258955792814e8	5.770743844610662e24	62.06878080400913	187.19788025089284	1.9596295547306863	0.9969062872159608
0.012226923971075714	3.859029360850684e-25	2.0754258955792814e8	5.770743844610662e24	62.06878080400913	187.19788025089284	1.9596295547306863	0.9969062872159608
0.012275220833232016	3.964480558751803e-25	2.0754258955792814e8	5.770743844610662e24	62.06878080400913	187.19788025089284	1.9596295547306863	0.9969062872159608
0.012323708470018116	4.0716728019853345e-25	2.0754258955792814e8	5.770743844610662e24	62.06878080400913	187.19788025089284	1.9596295547306863	0.9969062872159608
0.012372387635001796	4.180389823279111e-25	2.0754258955792814e8	5.770743844610662e24	62.06878080400913	187.19788025089284	1.9596295547306863	0.9969062872159608
0.012421259084727415	4.29040995527263e-25	2.0754258955792814e8	5.770743844610662e24	62.06878080400913	187.19788025089284	1.9596295547306863	0.9969062872159608
0.012470323578727863	4.401506040136129e-25	2.0754258955792814e8	5.770743844610662e24	62.06878080400913	187.19788025089284	1.9596295547306863	0.9969062872159608
0.012519581879536067	4.51344533789155e-25	2.0754258955792814e8	5.770743844610662e24	62.06878080400913	187.19788025089284	1.9596295547306863	0.9969062872159608
0.01256903475269699	4.625989433420237e-25	2.0754258955792814e8	5.770743844610662e24	62.06878080400913	187.19788025089284	1.9596295547306863	0.9969062872159608
0.012618682966779683	4.738894142139005e-25	2.0754258955792814e8	5.770743844610662e24	62.06878080400913	187.19788025089284	1.9596295547306863	0.9969062872159608
0.012668527293388921	4.851909414325694e-25	2.0754258955792814e8	5.770743844610662e24	62.06878080400913	187.19788025089284	1.9596295547306863	0.9969062872159608
0.012718568507177353	4.964779238078531e-25	2.0754258955792814e8	5.770743844610662e24	62.06878080400913	187.19788025089284	1.9596295547306863	0.9969062872159608
0.012768807385857695	5.077241540890011e-25	2.0754258955792814e8	5.770743844610662e24	62.06878080400913	187.19788025089284	1.9596295547306863	0.9969062872159608
0.012819244710214499	5.189028089815913e-25	2.0754258955792814e8	5.770743844610662e24	62.06878080400913	187.19788025089284	1.9596295547306863	0.9969062872159608
0.012869881264116508	5.29986439022309e-25	2.0754258955792814e8	5.770743844610662e24	62.06878080400913	187.19788025089284	1.9596295547306863	0.9969062872159608
0.01292071783452872	5.410864150324482e-25	2.0754258955792814e8	5.770743844610662e24	62.06878080400913	187.19788025089284	1.9596295547306863	0.9969062872159608
0.012971755211524839	5.52350487704865e-25	2.0754258955792814e8	5.770743844610662e24	62.06878080400913	187.19788025089284	1.9596295547306863	0.9969062872159608
0.01302299418829924	5.637803861986407e-25	2.0754258955792814e8	5.770743844610662e24	62.06878080400913	187.19788025089284	1.9596295547306863	0.9969062872159608
0.013074435561179439	5.753777259608753e-25	2.0754258955792814e8	5.770743844610662e24	62.06878080400913	187.19788025089284	1.9596295547306863	0.9969062872159608
0.013126080129638645	5.871441364222397e-25	2.0754258955792814e8	5.770743844610662e24	62.06878080400913	187.19788025089284	1.9596295547306863	0.9969062872159608
0.013177928696307859	5.990812611123128e-25	2.0754258955792814e8	5.770743844610662e24	62.06878080400913	187.19788025089284	1.9596295547306863	0.9969062872159608
0.013229982066988505	6.111907577759689e-25	2.0754258955792814e8	5.770743844610662e24	62.06878080400913	187.19788025089284	1.9596295547306863	0.9969062872159608
0.013282241050665122	6.234742984906955e-25	2.0754258955792814e8	5.770743844610662e24	62.06878080400913	187.19788025089284	1.9596295547306863	0.9969062872159608
0.013334706459517608	6.359335697847562e-25	2.0754258955792814e8	5.770743844610662e24	62.06878080400913	187.19788025089284	1.9596295547306863	0.9969062872159608
0.013387379108934004	6.485702727564156e-25	2.0754258955792814e8	5.770743844610662e24	62.06878080400913	187.19788025089284	1.9596295547306863	0.9969062872159608
0.013440259817523332	6.613861231941254e-25	2.0754258955792814e8	5.770743844610662e24	62.06878080400913	187.19788025089284	1.9596295547306863	0.9969062872159608
0.013493349407127993	6.743828516975713e-25	2.0754258955792814e8	5.770743844610662e24	62.06878080400913	187.19788025089284	1.9596295547306863	0.9969062872159608
0.013546648702836754	6.87562203799822e-25	2.0754258955792814e8	5.770743844610662e24	62.06878080400913	187.19788025089284	1.9596295547306863	0.9969062872159608
0.013600158532997453	7.009259400903842e-25	2.0754258955792814e8	5.770743844610662e24	62.06878080400913	187.19788025089284	1.9596295547306863	0.9969062872159608
0.013653879729230118	7.144758363393412e-25	2.0754258955792814e8	5.770743844610662e24	62.06878080400913	187.19788025089284	1.9596295547306863	0.9969062872159608
0.013707813126439533	7.282136836223408e-25	2.0754258955792814e8	5.770743844610662e24	62.06878080400913	187.19788025089284	1.9596295547306863	0.9969062872159608
0.013761959562828394	7.421412884467348e-25	2.0754258955792814e8	5.770743844610662e24	62.06878080400913	187.19788025089284	1.9596295547306863	0.9969062872159608
0.013816319879910503	7.562604728787211e-25	2.0754258955792814e8	5.770743844610662e24	62.06878080400913	187.19788025089284	1.9596295547306863	0.9969062872159608
0.013870894922523507	7.705730746713938e-25	2.0754258955792814e8	5.770743844610662e24	62.06878080400913	187.19788025089284	1.9596295547306863	0.9969062872159608
0.013925685538842193	7.850809473939458e-25	2.0754258955792814e8	5.770743844610662e24	62.06878080400913	187.19788025089284	1.9596295547306863	0.9969062872159608
0.013980692580391852	7.997859605619341e-25	2.0754258955792814e8	5.770743844610662e24	62.06878080400913	187.19788025089284	1.9596295547306863	0.9969062872159608
0.014035916902061156	8.14689999768434e-25	2.0754258955792814e8	5.770743844610662e24	62.06878080400913	187.19788025089284	1.9596295547306863	0.9969062872159608
0.014091359362115686	8.297949668164268e-25	2.0754258955792814e8	5.770743844610662e24	62.06878080400913	187.19788025089284	1.9596295547306863	0.9969062872159608
0.01414702082221115	8.45102779852149e-25	2.0754258955792814e8	5.770743844610662e24	62.06878080400913	187.19788025089284	1.9596295547306863	0.9969062872159608
0.014202902147407005	8.60615373499619e-25	2.0754258955792814e8	5.770743844610662e24	62.06878080400913	187.19788025089284	1.9596295547306863	0.9969062872159608
0.01425900420617955	8.763346989960836e-25	2.0754258955792814e8	5.770743844610662e24	62.06878080400913	187.19788025089284	1.9596295547306863	0.9969062872159608
0.014315327870435613	8.922627243287074e-25	2.0754258955792814e8	5.770743844610662e24	62.06878080400913	187.19788025089284	1.9596295547306863	0.9969062872159608
0.014371874015526254	9.084014343723566e-25	2.0754258955792814e8	5.770743844610662e24	62.06878080400913	187.19788025089284	1.9596295547306863	0.9969062872159608
0.01442864352026004	9.247528310283607e-25	2.0754258955792814e8	5.770743844610662e24	62.06878080400913	187.19788025089284	1.9596295547306863	0.9969062872159608
0.014485637266916856	9.4131893336452e-25	2.0754258955792814e8	5.770743844610662e24	62.06878080400913	187.19788025089284	1.9596295547306863	0.9969062872159608
0.014542856141261827	9.581017777562672e-25	2.0754258955792814e8	5.770743844610662e24	62.06878080400913	187.19788025089284	1.9596295547306863	0.9969062872159608
0.01460030103255869	9.751034180287912e-25	2.0754258955792814e8	5.770743844610662e24	62.06878080400913	187.19788025089284	1.9596295547306863	0.9969062872159608
0.014657972833583818	9.923259256004777e-25	2.0754258955792814e8	5.770743844610662e24	62.06878080400913	187.19788025089284	1.9596295547306863	0.9969062872159608
0.01471587244064027	1.0097713896274984e-24	2.0754258955792814e8	5.770743844610662e24	62.06878080400913	187.19788025089284	1.9596295547306863	0.9969062872159608
0.014774000753571359	1.0274419171494082e-24	2.0754258955792814e8	5.770743844610662e24	62.06878080400913	187.19788025089284	1.9596295547306863	0.9969062872159608
0.014832358675774874	1.0453396332360956e-24	2.0754258955792814e8	5.770743844610662e24	62.06878080400913	187.19788025089284	1.9596295547306863	0.9969062872159608
0.014890947114217006	1.0634666811358058e-24	2.0754258955792814e8	5.770743844610662e24	62.06878080400913	187.19788025089284	1.9596295547306863	0.9969062872159608
0.014949766979446676	1.081825222424468e-24	2.0754258955792814e8	5.770743844610662e24	62.06878080400913	187.19788025089284	1.9596295547306863	0.9969062872159608
0.015008819185609338	1.1004174371560476e-24	2.0754258955792814e8	5.770743844610662e24	62.06878080400913	187.19788025089284	1.9596295547306863	0.9969062872159608
0.015068104650461355	1.1192455240142645e-24	2.0754258955792814e8	5.770743844610662e24	62.06878080400913	187.19788025089284	1.9596295547306863	0.9969062872159608
0.015127624295384445	1.1383117004655416e-24	2.0754258955792814e8	5.770743844610662e24	62.06878080400913	187.19788025089284	1.9596295547306863	0.9969062872159608
0.015187379045399647	1.1576182029130202e-24	2.0754258955792814e8	5.770743844610662e24	62.06878080400913	187.19788025089284	1.9596295547306863	0.9969062872159608
0.015247369829181862	1.1771672868519719e-24	2.0754258955792814e8	5.770743844610662e24	62.06878080400913	187.19788025089284	1.9596295547306863	0.9969062872159608
0.015307597579074494	1.1969612270264834e-24	2.0754258955792814e8	5.770743844610662e24	62.06878080400913	187.19788025089284	1.9596295547306863	0.9969062872159608
0.015368063231103542	1.2170023175872071e-24	2.0754258955792814e8	5.770743844610662e24	62.06878080400913	187.19788025089284	1.9596295547306863	0.9969062872159608
0.01542876772499242	1.2372928722505941e-24	2.0754258955792814e8	5.770743844610662e24	62.06878080400913	187.19788025089284	1.9596295547306863	0.9969062872159608
0.015489712004176419	1.257835224459281e-24	2.0754258955792814e8	5.770743844610662e24	62.06878080400913	187.19788025089284	1.9596295547306863	0.9969062872159608
0.015550897015817633	1.2786317275438984e-24	2.0754258955792814e8	5.770743844610662e24	62.06878080400913	187.19788025089284	1.9596295547306863	0.9969062872159608
0.015612323710819295	1.2996847548859676e-24	2.0754258955792814e8	5.770743844610662e24	62.06878080400913	187.19788025089284	1.9596295547306863	0.9969062872159608
0.015673993043840744	1.3209967000823013e-24	2.0754258955792814e8	5.770743844610662e24	62.06878080400913	187.19788025089284	1.9596295547306863	0.9969062872159608
0.015735905973312456	1.3425699771107245e-24	2.0754258955792814e8	5.770743844610662e24	62.06878080400913	187.19788025089284	1.9596295547306863	0.9969062872159608
0.01579806346145056	1.3644070204969473e-24	2.0754258955792814e8	5.770743844610662e24	62.06878080400913	187.19788025089284	1.9596295547306863	0.9969062872159608
0.015860466474271966	1.386510285482955e-24	2.0754258955792814e8	5.770743844610662e24	62.06878080400913	187.19788025089284	1.9596295547306863	0.9969062872159608
0.015923115981609594	1.4088822481967792e-24	2.0754258955792814e8	5.770743844610662e24	62.06878080400913	187.19788025089284	1.9596295547306863	0.9969062872159608
0.015986012957127052	1.4315254058234179e-24	2.0754258955792814e8	5.770743844610662e24	62.06878080400913	187.19788025089284	1.9596295547306863	0.9969062872159608
0.016049158378333962	1.4544422767773361e-24	2.0754258955792814e8	5.770743844610662e24	62.06878080400913	187.19788025089284	1.9596295547306863	0.9969062872159608
0.016112553226601337	1.4776354008763603e-24	2.0754258955792814e8	5.770743844610662e24	62.06878080400913	187.19788025089284	1.9596295547306863	0.9969062872159608
0.01617619848717645	1.5011073395167582e-24	2.0754258955792814e8	5.770743844610662e24	62.06878080400913	187.19788025089284	1.9596295547306863	0.9969062872159608
0.01624009514919842	1.5248606758499698e-24	2.0754258955792814e8	5.770743844610662e24	62.06878080400913	187.19788025089284	1.9596295547306863	0.9969062872159608
