r[m]	M[Msun]	rho[g/cm^3]	P[N/m^2]	n_e[pm^-3]	n_p[pm^-3]	muF_e[MeV]	B
0.010000000000000012	7.982261585384861e-38	9.879208995448425e9	1.0294704147621082e27	2946.6228425336876	8888.39830654407	8.256444128077277	0.9881061221266882
0.010037459409447905	2.367778273455099e-25	9.879208995448425e9	1.0294704147621082e27	2946.6228425336876	8888.39830654407	8.256444128077277	0.9881061221266882
0.010075059139631373	4.781854184673204e-25	9.879208995448425e9	1.0294704147621082e27	2946.6228425336876	8888.39830654407	8.256444128077277	0.9881061221266882
0.010112799716183691	7.208894428996362e-25	9.879208995448425e9	1.0294704147621082e27	2946.6228425336876	8888.39830654407	8.256444128077277	0.9881061221266882
0.010150681666706953	9.652390185681746e-25	9.879208995448425e9	1.0294704147621082e27	2946.6228425336876	8888.39830654407	8.256444128077277	0.9881061221266882
0.010188705520779792	1.2147727187397845e-24	9.879208995448425e9	1.0294704147621082e27	2946.6228425336876	8888.39830654407	8.256444128077277	0.9881061221266882
0.010226871809964438	1.4661637634923187e-24	9.879208995448425e9	1.0294704147621082e27	2946.6228425336876	8888.39830654407	8.256444128077277	0.9881061221266882
0.010265181067814495	1.7174288931970542e-24	9.879208995448425e9	1.0294704147621082e27	2946.6228425336876	8888.39830654407	8.256444128077277	0.9881061221266882
0.010303633829882052	1.971303744729099e-24	9.879208995448425e9	1.0294704147621082e27	2946.6228425336876	8888.39830654407	8.256444128077277	0.9881061221266882
0.010342230633725523	2.2280521504056434e-24	9.879208995448425e9	1.0294704147621082e27	2946.6228425336876	8888.39830654407	8.256444128077277	0.9881061221266882
0.010380972018916804	2.4876993049146893e-24	9.879208995448425e9	1.0294704147621082e27	2946.6228425336876	8888.39830654407	8.256444128077277	0.9881061221266882
0.010419858527049176	2.750270605637534e-24	9.879208995448425e9	1.0294704147621082e27	2946.6228425336876	8888.39830654407	8.256444128077277	0.9881061221266882
0.010458890701744515	3.015791654218653e-24	9.879208995448425e9	1.0294704147621082e27	2946.6228425336876	8888.39830654407	8.256444128077277	0.9881061221266882
0.010498069088661256	3.2842949775662693e-24	9.879208995448425e9	1.0294704147621082e27	2946.6228425336876	8888.39830654407	8.256444128077277	0.9881061221266882
0.010537394235501653	3.55584103422794e-24	9.879208995448425e9	1.0294704147621082e27	2946.6228425336876	8888.39830654407	8.256444128077277	0.9881061221266882
0.010576866692019805	3.830461348254093e-24	9.879208995448425e9	1.0294704147621082e27	2946.6228425336876	8888.39830654407	8.256444128077277	0.9881061221266882
0.010616487010028973	4.108182875760028e-24	9.879208995448425e9	1.0294704147621082e27	2946.6228425336876	8888.39830654407	8.256444128077277	0.9881061221266882
0.010656255743409664	4.38903278973067e-24	9.879208995448425e9	1.0294704147621082e27	2946.6228425336876	8888.39830654407	8.256444128077277	0.9881061221266882
0.010696173448117003	4.673038481700221e-24	9.879208995448425e9	1.0294704147621082e27	2946.6228425336876	8888.39830654407	8.256444128077277	0.9881061221266882
0.01073624068218887	4.960234133163515e-24	9.879208995448425e9	1.0294704147621082e27	2946.6228425336876	8888.39830654407	8.256444128077277	0.9881061221266882
0.01077645800575335	5.250683656194609e-24	9.879208995448425e9	1.0294704147621082e27	2946.6228425336876	8888.39830654407	8.256444128077277	0.9881061221266882
0.0108168259810369	5.544421052148452e-24	9.879208995448425e9	1.0294704147621082e27	2946.6228425336876	8888.39830654407	8.256444128077277	0.9881061221266882
0.010857345172371882	5.8414751492083874e-24	9.879208995448425e9	1.0294704147621082e27	2946.6228425336876	8888.39830654407	8.256444128077277	0.9881061221266882
0.01089801614620478	6.14187500748536e-24	9.879208995448425e9	1.0294704147621082e27	2946.6228425336876	8888.39830654407	8.256444128077277	0.9881061221266882
0.010938839471103775	6.445649920814431e-24	9.879208995448425e9	1.0294704147621082e27	2946.6228425336876	8888.39830654407	8.256444128077277	0.9881061221266882
0.010979815717767058	6.752832359647803e-24	9.879208995448425e9	1.0294704147621082e27	2946.6228425336876	8888.39830654407	8.256444128077277	0.9881061221266882
0.011020945459030436	7.063466781689571e-24	9.879208995448425e9	1.0294704147621082e27	2946.6228425336876	8888.39830654407	8.256444128077277	0.9881061221266882
0.011062229269875705	7.377593314674293e-24	9.879208995448425e9	1.0294704147621082e27	2946.6228425336876	8888.39830654407	8.256444128077277	0.9881061221266882
0.011103667727438333	7.695251791891479e-24	9.879208995448425e9	1.0294704147621082e27	2946.6228425336876	8888.39830654407	8.256444128077277	0.9881061221266882
0.011145261411015878	8.016482501260668e-24	9.879208995448425e9	1.0294704147621082e27	2946.6228425336876	8888.39830654407	8.256444128077277	0.9881061221266882
0.011187010902075734	8.341326190504354e-24	9.879208995448425e9	1.0294704147621082e27	2946.6228425336876	8888.39830654407	8.256444128077277	0.9881061221266882
0.011228916784263621	8.669824072384947e-24	9.879208995448425e9	1.0294704147621082e27	2946.6228425336876	8888.39830654407	8.256444128077277	0.9881061221266882
0.011270979643411378	9.002017829995719e-24	9.879208995448425e9	1.0294704147621082e27	2946.6228425336876	8888.39830654407	8.256444128077277	0.9881061221266882
0.011313200067545517	9.337949622117396e-24	9.879208995448425e9	1.0294704147621082e27	2946.6228425336876	8888.39830654407	8.256444128077277	0.9881061221266882
0.011355578646895082	9.677662088629946e-24	9.879208995448425e9	1.0294704147621082e27	2946.6228425336876	8888.39830654407	8.256444128077277	0.9881061221266882
0.01139811597390026	1.002119835599144e-23	9.879208995448425e9	1.0294704147621082e27	2946.6228425336876	8888.39830654407	8.256444128077277	0.9881061221266882
0.0114408126432203	1.0368602042773417e-23	9.879208995448425e9	1.0294704147621082e27	2946.6228425336876	8888.39830654407	8.256444128077277	0.9881061221266882
0.011483669251742202	1.0719917265265041e-23	9.879208995448425e9	1.0294704147621082e27	2946.6228425336876	8888.39830654407	8.256444128077277	0.9881061221266882
0.01152668639858867	1.1075188643134516e-23	9.879208995448425e9	1.0294704147621082e27	2946.6228425336876	8888.39830654407	8.256444128077277	0.9881061221266882
0.011569864685126888	1.1434461305161446e-23	9.879208995448425e9	1.0294704147621082e27	2946.6228425336876	8888.39830654407	8.256444128077277	0.9881061221266882
0.011613204714976528	1.1797780895027537e-23	9.879208995448425e9	1.0294704147621082e27	2946.6228425336876	8888.39830654407	8.256444128077277	0.9881061221266882
0.011656707094018576	1.2165193577179566e-23	9.879208995448425e9	1.0294704147621082e27	2946.6228425336876	8888.39830654407	8.256444128077277	0.9881061221266882
0.011700372430403427	1.2536746042752634e-23	9.879208995448425e9	1.0294704147621082e27	2946.6228425336876	8888.39830654407	8.256444128077277	0.9881061221266882
0.011744201334559756	1.2912485515566786e-23	9.879208995448425e9	1.0294704147621082e27	2946.6228425336876	8888.39830654407	8.256444128077277	0.9881061221266882
0.011788194419202683	1.329245975818557e-23	9.879208995448425e9	1.0294704147621082e27	2946.6228425336876	8888.39830654407	8.256444128077277	0.9881061221266882
0.01183235229934271	1.3676717078049484e-23	9.879208995448425e9	1.0294704147621082e27	2946.6228425336876	8888.39830654407	8.256444128077277	0.9881061221266882
0.011876675592293938	1.4065306333672878e-23	9.879208995448425e9	1.0294704147621082e27	2946.6228425336876	8888.39830654407	8.256444128077277	0.9881061221266882
0.01192116491768309	1.445827694091758e-23	9.879208995448425e9	1.0294704147621082e27	2946.6228425336876	8888.39830654407	8.256444128077277	0.9881061221266882
0.011965820897457773	1.4855678879330967e-23	9.879208995448425e9	1.0294704147621082e27	2946.6228425336876	8888.39830654407	8.256444128077277	0.9881061221266882
0.012010644155895575	1.5257562698563015e-23	9.879208995448425e9	1.0294704147621082e27	2946.6228425336876	8888.39830654407	8.256444128077277	0.9881061221266882
0.012055635319612385	1.5663979524849018e-23	9.879208995448425e9	1.0294704147621082e27	2946.6228425336876	8888.39830654407	8.256444128077277	0.9881061221266882
0.012100795017571568	1.6074981067573127e-23	9.879208995448425e9	1.0294704147621082e27	2946.6228425336876	8888.39830654407	8.256444128077277	0.9881061221266882
0.01214612388109234	1.6490619625898943e-23	9.879208995448425e9	1.0294704147621082e27	2946.6228425336876	8888.39830654407	8.256444128077277	0.9881061221266882
0.012191622543859006	1.691094809548296e-23	9.879208995448425e9	1.0294704147621082e27	2946.6228425336876	8888.39830654407	8.256444128077277	0.9881061221266882
0.012237291641929412	1.7336019975256553e-23	9.879208995448425e9	1.0294704147621082e27	2946.6228425336876	8888.39830654407	8.256444128077277	0.9881061221266882
0.01228313181374424	1.776588937429254e-23	9.879208995448425e9	1.0294704147621082e27	2946.6228425336876	8888.39830654407	8.256444128077277	0.9881061221266882
0.012329143700135535	1.8200611018742042e-23	9.879208995448425e9	1.0294704147621082e27	2946.6228425336876	8888.39830654407	8.256444128077277	0.9881061221266882
0.012375327944336063	1.8640240258857753e-23	9.879208995448425e9	1.0294704147621082e27	2946.6228425336876	8888.39830654407	8.256444128077277	0.9881061221266882
0.012421685191987894	1.9084833076089106e-23	9.879208995448425e9	1.0294704147621082e27	2946.6228425336876	8888.39830654407	8.256444128077277	0.9881061221266882
0.012468216091151842	1.953444609026579e-23	9.879208995448425e9	1.0294704147621082e27	2946.6228425336876	8888.39830654407	8.256444128077277	0.9881061221266882
0.012514921292316116	1.998913656685502e-23	9.879208995448425e9	1.0294704147621082e27	2946.6228425336876	8888.39830654407	8.256444128077277	0.9881061221266882
0.012561801448405817	2.0448962424308778e-23	9.879208995448425e9	1.0294704147621082e27	2946.6228425336876	8888.39830654407	8.256444128077277	0.9881061221266882
0.01260885721479166	2.0913982241486764e-23	9.879208995448425e9	1.0294704147621082e27	2946.6228425336876	8888.39830654407	8.256444128077277	0.9881061221266882
0.012656089249299547	2.1384255265171495e-23	9.879208995448425e9	1.0294704147621082e27	2946.6228425336876	8888.39830654407	8.256444128077277	0.9881061221266882
0.012703498212219404	2.185984141766093e-23	9.879208995448425e9	1.0294704147621082e27	2946.6228425336876	8888.39830654407	8.256444128077277	0.9881061221266882
0.01275108476631456	2.2340801304452502e-23	9.879208995448425e9	1.0294704147621082e27	2946.6228425336876	8888.39830654407	8.256444128077277	0.9881061221266882
0.012798849576831176	2.2827196222014387e-23	9.879208995448425e9	1.0294704147621082e27	2946.6228425336876	8888.39830654407	8.256444128077277	0.9881061221266882
0.012846793311507171	2.331908816563944e-23	9.879208995448425e9	1.0294704147621082e27	2946.6228425336876	8888.39830654407	8.256444128077277	0.9881061221266882
0.01289491664058199	2.381653983739656e-23	9.879208995448425e9	1.0294704147621082e27	2946.6228425336876	8888.39830654407	8.256444128077277	0.9881061221266882
0.012943220236805534	2.431961465416325e-23	9.879208995448425e9	1.0294704147621082e27	2946.6228425336876	8888.39830654407	8.256444128077277	0.9881061221266882
0.012991704775448008	2.4828376755758448e-23	9.879208995448425e9	1.0294704147621082e27	2946.6228425336876	8888.39830654407	8.256444128077277	0.9881061221266882
0.01304037093430892	2.5342891013158342e-23	9.879208995448425e9	1.0294704147621082e27	2946.6228425336876	8888.39830654407	8.256444128077277	0.9881061221266882
0.013089219393726984	2.5863223036814703e-23	9.879208995448425e9	1.0294704147621082e27	2946.6228425336876	8888.39830654407	8.256444128077277	0.9881061221266882
0.013138250836589219	2.6389439185058307e-23	9.879208995448425e9	1.0294704147621082e27	2946.6228425336876	8888.39830654407	8.256444128077277	0.9881061221266882
0.013187465948340884	2.692160657260671e-23	9.879208995448425e9	1.0294704147621082e27	2946.6228425336876	8888.39830654407	8.256444128077277	0.9881061221266882
0.013236865416994759	2.7459793079160724e-23	9.879208995448425e9	1.0294704147621082e27	2946.6228425336876	8888.39830654407	8.256444128077277	0.9881061221266882
0.013286449933140916	2.800406735810349e-23	9.879208995448425e9	1.0294704147621082e27	2946.6228425336876	8888.39830654407	8.256444128077277	0.9881061221266882
0.013336220189956333	2.855449884529613e-23	9.879208995448425e9	1.0294704147621082e27	2946.6228425336876	8888.39830654407	8.256444128077277	0.9881061221266882
0.013386176883214584	2.91111489199124e-23	9.879208995448425e9	1.0294704147621082e27	2946.6228425336876	8888.39830654407	8.256444128077277	0.9881061221266882
0.013436320711295581	2.967407800019981e-23	9.879208995448425e9	1.0294704147621082e27	2946.6228425336876	8888.39830654407	8.256444128077277	0.9881061221266882
0.013486652375195314	3.024335690453599e-23	9.879208995448425e9	1.0294704147621082e27	2946.6228425336876	8888.39830654407	8.256444128077277	0.9881061221266882
0.013537172578535666	3.0819057258756e-23	9.879208995448425e9	1.0294704147621082e27	2946.6228425336876	8888.39830654407	8.256444128077277	0.9881061221266882
0.013587882027574253	3.140125149663235e-23	9.879208995448425e9	1.0294704147621082e27	2946.6228425336876	8888.39830654407	8.256444128077277	0.9881061221266882
0.01363878143121428	3.199001286898832e-23	9.879208995448425e9	1.0294704147621082e27	2946.6228425336876	8888.39830654407	8.256444128077277	0.9881061221266882
0.013689871501014469	3.2585415452914435e-23	9.879208995448425e9	1.0294704147621082e27	2946.6228425336876	8888.39830654407	8.256444128077277	0.9881061221266882
0.01374115295119899	3.3187534161088716e-23	9.879208995448425e9	1.0294704147621082e27	2946.6228425336876	8888.39830654407	8.256444128077277	0.9881061221266882
0.013792626498667469	3.379644475120212e-23	9.879208995448425e9	1.0294704147621082e27	2946.6228425336876	8888.39830654407	8.256444128077277	0.9881061221266882
0.013844292863004983	3.44122238354901e-23	9.879208995448425e9	1.0294704147621082e27	2946.6228425336876	8888.39830654407	8.256444128077277	0.9881061221266882
0.013896152766492137	3.5034948890372056e-23	9.879208995448425e9	1.0294704147621082e27	2946.6228425336876	8888.39830654407	8.256444128077277	0.9881061221266882
0.013948206934115156	3.5664698266199106e-23	9.879208995448425e9	1.0294704147621082e27	2946.6228425336876	8888.39830654407	8.256444128077277	0.9881061221266882
0.014000456093576022	3.630155119711218e-23	9.879208995448425e9	1.0294704147621082e27	2946.6228425336876	8888.39830654407	8.256444128077277	0.9881061221266882
0.014052900975302643	3.6945587811011045e-23	9.879208995448425e9	1.0294704147621082e27	2946.6228425336876	8888.39830654407	8.256444128077277	0.9881061221266882
0.014105542312459066	3.7596889139635836e-23	9.879208995448425e9	1.0294704147621082e27	2946.6228425336876	8888.39830654407	8.256444128077277	0.9881061221266882
0.014158380840955734	3.825553712876255e-23	9.879208995448425e9	1.0294704147621082e27	2946.6228425336876	8888.39830654407	8.256444128077277	0.9881061221266882
0.014211417299459787	3.8921614648513464e-23	9.879208995448425e9	1.0294704147621082e27	2946.6228425336876	8888.39830654407	8.256444128077277	0.9881061221266882
0.014264652429405259	3.959520550378204e-23	9.879208995448425e9	1.0294704147621082e27	2946.6228425336876	8888.39830654407	8.256444128077277	0.9881061221266882
0.014318086975003754	4.027639444478119e-23	9.879208995448425e9	1.0294704147621082e27	2946.6228425336876	8888.39830654407	8.256444128077277	0.9881061221266882
0.014371721683254443	4.096526717770121e-23	9.879208995448425e9	1.0294704147621082e27	2946.6228425336876	8888.39830654407	8.256444128077277	0.9881061221266882
0.01442555730395483	4.1661910375497225e-23	9.879208995448425e9	1.0294704147621082e27	2946.6228425336876	8888.39830654407	8.256444128077277	0.9881061221266882
0.01447959458971109	4.236641168879251e-23	9.879208995448425e9	1.0294704147621082e27	2946.6228425336876	8888.39830654407	8.256444128077277	0.9881061221266882
0.014533834295948603	4.307885975690685e-23	9.879208995448425e9	1.0294704147621082e27	2946.6228425336876	8888.39830654407	8.256444128077277	0.9881061221266882
0.014588277180922548	4.379934421900909e-23	9.879208995448425e9	1.0294704147621082e27	2946.6228425336876	8888.39830654407	8.256444128077277	0.9881061221266882
0.01464292400572847	4.4527955725395306e-23	9.87920899544842e9	1.0294704147621074e27	2946.622842533686	8888.398306544064	8.256444128077277	0.9881061221266882
0.014697775534312932	4.526478594889436e-23	9.87920899544842e9	1.0294704147621074e27	2946.622842533686	8888.398306544064	8.256444128077277	0.9881061221266882
0.014752832533484207	4.600992759640209e-23	9.87920899544842e9	1.0294704147621074e27	2946.622842533686	8888.398306544064	8.256444128077277	0.9881061221266882
0.014808095772922972	4.676347442054534e-23	9.87920899544842e9	1.0294704147621074e27	2946.622842533686	8888.398306544064	8.256444128077277	0.9881061221266882
0.014863566025193092	4.7525521231478006e-23	9.87920899544842e9	1.0294704147621074e27	2946.622842533686	8888.398306544064	8.256444128077277	0.9881061221266882
0.014919244065752409	4.8296163908809876e-23	9.87920899544842e9	1.0294704147621074e27	2946.622842533686	8888.398306544064	8.256444128077277	0.9881061221266882
0.014975130672963584	4.907549941366998e-23	9.87920899544842e9	1.0294704147621074e27	2946.622842533686	8888.398306544064	8.256444128077277	0.9881061221266882
0.015031226628104974	4.986362580090607e-23	9.87920899544842e9	1.0294704147621074e27	2946.622842533686	8888.398306544064	8.256444128077277	0.9881061221266882
0.015087532715381565	5.0660642231421854e-23	9.87920899544842e9	1.0294704147621074e27	2946.622842533686	8888.398306544064	8.256444128077277	0.9881061221266882
0.01514404972193593	5.1466648984653243e-23	9.87920899544842e9	1.0294704147621074e27	2946.622842533686	8888.398306544064	8.256444128077277	0.9881061221266882
0.01520077843785922	5.2281747471185274e-23	9.87920899544842e9	1.0294704147621074e27	2946.622842533686	8888.398306544064	8.256444128077277	0.9881061221266882
0.015257719656202233	5.310604024551158e-23	9.87920899544842e9	1.0294704147621074e27	2946.622842533686	8888.398306544064	8.256444128077277	0.9881061221266882
0.015314874172986484	5.39396310189375e-23	9.87920899544842e9	1.0294704147621074e27	2946.622842533686	8888.398306544064	8.256444128077277	0.9881061221266882
0.015372242787215338	5.478262467262904e-23	9.87920899544842e9	1.0294704147621074e27	2946.622842533686	8888.398306544064	8.256444128077277	0.9881061221266882
0.015429826300885173	5.563512727080862e-23	9.87920899544842e9	1.0294704147621074e27	2946.622842533686	8888.398306544064	8.256444128077277	0.9881061221266882
0.015487625518996613	5.649724607410028e-23	9.87920899544842e9	1.0294704147621074e27	2946.622842533686	8888.398306544064	8.256444128077277	0.9881061221266882
0.015545641249565752	5.736908955302475e-23	9.87920899544842e9	1.0294704147621074e27	2946.622842533686	8888.398306544064	8.256444128077277	0.9881061221266882
0.015603874303635471	5.825076740164709e-23	9.87920899544842e9	1.0294704147621074e27	2946.622842533686	8888.398306544064	8.256444128077277	0.9881061221266882
0.01566232549528677	5.914239055137848e-23	9.87920899544842e9	1.0294704147621074e27	2946.622842533686	8888.398306544064	8.256444128077277	0.9881061221266882
0.015720995641650148	6.004407118493307e-23	9.87920899544842e9	1.0294704147621074e27	2946.622842533686	8888.398306544064	8.256444128077277	0.9881061221266882
0.015779885562917022	6.0955922750443e-23	9.87920899544842e9	1.0294704147621074e27	2946.622842533686	8888.398306544064	8.256444128077277	0.9881061221266882
0.01583899608235121	6.18780599757321e-23	9.87920899544842e9	1.0294704147621074e27	2946.622842533686	8888.398306544064	8.256444128077277	0.9881061221266882
0.01589832802630041	6.281059888275063e-23	9.87920899544842e9	1.0294704147621074e27	2946.622842533686	8888.398306544064	8.256444128077277	0.9881061221266882
0.015957882224207784	6.375365680217333e-23	9.87920899544842e9	1.0294704147621074e27	2946.622842533686	8888.398306544064	8.256444128077277	0.9881061221266882
