r[m]	M[Msun]	rho[g/cm^3]	P[N/m^2]	n_e[pm^-3]	n_p[pm^-3]	muF_e[MeV]	B
0.009999999999999998	0.	9.647566918338428e9	9.868814686357633e26	2854.853842882667	2171.704335884508	8.164767084027275	0.9883241387150047
0.010037459320664886	2.3122546339567634e-25	9.647566918338428e9	9.868814686357633e26	2854.853842882667	2171.704335884508	8.164767084027275	0.9883241387150047
0.010075058961400242	4.669722480513234e-25	9.647566918338428e9	9.868814686357633e26	2854.853842882667	2171.704335884508	8.164767084027275	0.9883241387150047
0.010112799447835516	7.039853332267584e-25	9.647566918338428e9	9.868814686357633e26	2854.853842882667	2171.704335884508	8.164767084027275	0.9883241387150047
0.010150681307569132	9.426046496306723e-25	9.647566918338428e9	9.868814686357633e26	2854.853842882667	2171.704335884508	8.164767084027275	0.9883241387150047
0.010188705070175864	1.1862868378965177e-24	9.647566918338428e9	9.868814686357633e26	2854.853842882667	2171.704335884508	8.164767084027275	0.9883241387150047
0.010226871267214232	1.4317835167337302e-24	9.647566918338428e9	9.868814686357633e26	2854.853842882667	2171.704335884508	8.164767084027275	0.9883241387150047
0.01026518043223394	1.677156879644463e-24	9.647566918338428e9	9.868814686357633e26	2854.853842882667	2171.704335884508	8.164767084027275	0.9883241387150047
0.01030363310078334	1.925078379708368e-24	9.647566918338428e9	9.868814686357633e26	2854.853842882667	2171.704335884508	8.164767084027275	0.9883241387150047
0.0103422298104169	2.175806045211124e-24	9.647566918338428e9	9.868814686357633e26	2854.853842882667	2171.704335884508	8.164767084027275	0.9883241387150047
0.010380971100702735	2.4293644799401743e-24	9.647566918338428e9	9.868814686357633e26	2854.853842882667	2171.704335884508	8.164767084027275	0.9883241387150047
0.010419857513230152	2.685778485620883e-24	9.647566918338428e9	9.868814686357633e26	2854.853842882667	2171.704335884508	8.164767084027275	0.9883241387150047
0.010458889591617204	2.9450730634517153e-24	9.647566918338428e9	9.868814686357633e26	2854.853842882667	2171.704335884508	8.164767084027275	0.9883241387150047
0.010498067881518308	3.207279965632878e-24	9.647566918338428e9	9.868814686357633e26	2854.853842882667	2171.704335884508	8.164767084027275	0.9883241387150047
0.010537392930631865	3.47245823588931e-24	9.647566918338428e9	9.868814686357633e26	2854.853842882667	2171.704335884508	8.164767084027275	0.9883241387150047
0.01057686528870791	3.740638669346928e-24	9.647566918338428e9	9.868814686357633e26	2854.853842882667	2171.704335884508	8.164767084027275	0.9883241387150047
0.010616485507555812	4.011847589925065e-24	9.647566918338428e9	9.868814686357633e26	2854.853842882667	2171.704335884508	8.164767084027275	0.9883241387150047
0.010656254141051978	4.2861115333247294e-24	9.647566918338428e9	9.868814686357633e26	2854.853842882667	2171.704335884508	8.164767084027275	0.9883241387150047
0.0106961717451476	4.563457248671364e-24	9.647566918338428e9	9.868814686357633e26	2854.853842882667	2171.704335884508	8.164767084027275	0.9883241387150047
0.01073623887787642	4.8439180981011826e-24	9.647566918338428e9	9.868814686357633e26	2854.853842882667	2171.704335884508	8.164767084027275	0.9883241387150047
0.010776456099362541	5.127556497666907e-24	9.647566918338428e9	9.868814686357633e26	2854.853842882667	2171.704335884508	8.164767084027275	0.9883241387150047
0.01081682397182825	5.414405667826487e-24	9.647566918338428e9	9.868814686357633e26	2854.853842882667	2171.704335884508	8.164767084027275	0.9883241387150047
0.010857343059601886	5.704493760678195e-24	9.647566918338428e9	9.868814686357633e26	2854.853842882667	2171.704335884508	8.164767084027275	0.9883241387150047
0.010898013929125717	5.997849154806895e-24	9.647566918338428e9	9.868814686357633e26	2854.853842882667	2171.704335884508	8.164767084027275	0.9883241387150047
0.01093883714896387	6.2945004570410634e-24	9.647566918338428e9	9.868814686357633e26	2854.853842882667	2171.704335884508	8.164767084027275	0.9883241387150047
0.010979813289810273	6.594479367240289e-24	9.647566918338428e9	9.868814686357633e26	2854.853842882667	2171.704335884508	8.164767084027275	0.9883241387150047
0.011020942924496633	6.897829297777121e-24	9.647566918338428e9	9.868814686357633e26	2854.853842882667	2171.704335884508	8.164767084027275	0.9883241387150047
0.011062226628000403	7.204589438886441e-24	9.647566918338428e9	9.868814686357633e26	2854.853842882667	2171.704335884508	8.164767084027275	0.9883241387150047
0.011103664977452994	7.514798689557382e-24	9.647566918338428e9	9.868814686357633e26	2854.853842882667	2171.704335884508	8.164767084027275	0.9883241387150047
0.011145258552147584	7.828496392742419e-24	9.647566918338428e9	9.868814686357633e26	2854.853842882667	2171.704335884508	8.164767084027275	0.9883241387150047
0.011187007933547382	8.145722340412691e-24	9.647566918338428e9	9.868814686357633e26	2854.853842882667	2171.704335884508	8.164767084027275	0.9883241387150047
0.011228913705293723	8.466516778669205e-24	9.647566918338428e9	9.868814686357633e26	2854.853842882667	2171.704335884508	8.164767084027275	0.9883241387150047
0.011270976453214216	8.7909204129123e-24	9.647566918338428e9	9.868814686357633e26	2854.853842882667	2171.704335884508	8.164767084027275	0.9883241387150047
0.01131319676533095	9.11897441306994e-24	9.647566918338428e9	9.868814686357633e26	2854.853842882667	2171.704335884508	8.164767084027275	0.9883241387150047
0.011355575231868701	9.450720418885187e-24	9.647566918338428e9	9.868814686357633e26	2854.853842882667	2171.704335884508	8.164767084027275	0.9883241387150047
0.011398112445263184	9.786200545263841e-24	9.647566918338428e9	9.868814686357633e26	2854.853842882667	2171.704335884508	8.164767084027275	0.9883241387150047
0.011440809000169338	1.0125457387682692e-23	9.647566918338428e9	9.868814686357633e26	2854.853842882667	2171.704335884508	8.164767084027275	0.9883241387150047
0.011483665493469646	1.0468534027659333e-23	9.647566918338428e9	9.868814686357633e26	2854.853842882667	2171.704335884508	8.164767084027275	0.9883241387150047
0.011526682524282465	1.0815474038283803e-23	9.647566918338428e9	9.868814686357633e26	2854.853842882667	2171.704335884508	8.164767084027275	0.9883241387150047
0.01156986069397041	1.1166321489813307e-23	9.647566918338428e9	9.868814686357633e26	2854.853842882667	2171.704335884508	8.164767084027275	0.9883241387150047
0.011613200606148762	1.1521120955330169e-23	9.647566918338428e9	9.868814686357633e26	2854.853842882667	2171.704335884508	8.164767084027275	0.9883241387150047
0.011656702866693902	1.1879917516464328e-23	9.647566918338428e9	9.868814686357633e26	2854.853842882667	2171.704335884508	8.164767084027275	0.9883241387150047
0.011700368083751782	1.2242756769180466e-23	9.647566918338428e9	9.868814686357633e26	2854.853842882667	2171.704335884508	8.164767084027275	0.9883241387150047
0.011744196867746429	1.2609684829631042e-23	9.647566918338428e9	9.868814686357633e26	2854.853842882667	2171.704335884508	8.164767084027275	0.9883241387150047
0.011788189831388478	1.2980748340075737e-23	9.647566918338428e9	9.868814686357633e26	2854.853842882667	2171.704335884508	8.164767084027275	0.9883241387150047
0.011832347589683734	1.3355994474867904e-23	9.647566918338428e9	9.868814686357633e26	2854.853842882667	2171.704335884508	8.164767084027275	0.9883241387150047
0.01187667075994177	1.3735470946509266e-23	9.647566918338428e9	9.868814686357633e26	2854.853842882667	2171.704335884508	8.164767084027275	0.9883241387150047
0.011921159961784564	1.411922601177308e-23	9.647566918338428e9	9.868814686357633e26	2854.853842882667	2171.704335884508	8.164767084027275	0.9883241387150047
0.011965815817155155	1.4507308477896964e-23	9.647566918338428e9	9.868814686357633e26	2854.853842882667	2171.704335884508	8.164767084027275	0.9883241387150047
0.012010638950326336	1.4899767708845808e-23	9.647566918338428e9	9.868814686357633e26	2854.853842882667	2171.704335884508	8.164767084027275	0.9883241387150047
0.012055629987909383	1.5296653631646035e-23	9.647566918338428e9	9.868814686357633e26	2854.853842882667	2171.704335884508	8.164767084027275	0.9883241387150047
0.012100789558862816	1.569801674279148e-23	9.647566918338428e9	9.868814686357633e26	2854.853842882667	2171.704335884508	8.164767084027275	0.9883241387150047
0.012146118294501192	1.61039081147222e-23	9.647566918338428e9	9.868814686357633e26	2854.853842882667	2171.704335884508	8.164767084027275	0.9883241387150047
0.01219161682850393	1.651437940237663e-23	9.647566918338428e9	9.868814686357633e26	2854.853842882667	2171.704335884508	8.164767084027275	0.9883241387150047
0.012237285796924168	1.6929482849818248e-23	9.647566918338428e9	9.868814686357633e26	2854.853842882667	2171.704335884508	8.164767084027275	0.9883241387150047
0.012283125838197653	1.7349271296937164e-23	9.647566918338428e9	9.868814686357633e26	2854.853842882667	2171.704335884508	8.164767084027275	0.9883241387150047
0.012329137593151674	1.7773798186228203e-23	9.647566918338425e9	9.868814686357628e26	2854.8538428826655	2171.704335884507	8.164767084027273	0.9883241387150047
0.012375321705014014	1.820311756964545e-23	9.647566918338425e9	9.868814686357628e26	2854.8538428826655	2171.704335884507	8.164767084027273	0.9883241387150047
0.012421678819421939	1.86372841155348e-23	9.647566918338425e9	9.868814686357628e26	2854.8538428826655	2171.704335884507	8.164767084027273	0.9883241387150047
0.012468209584431237	1.9076353115645325e-23	9.647566918338425e9	9.868814686357628e26	2854.8538428826655	2171.704335884507	8.164767084027273	0.9883241387150047
0.01251491465052526	1.9520380492219734e-23	9.647566918338425e9	9.868814686357628e26	2854.8538428826655	2171.704335884507	8.164767084027273	0.9883241387150047
0.012561794670624033	1.9969422805165727e-23	9.647566918338425e9	9.868814686357628e26	2854.8538428826655	2171.704335884507	8.164767084027273	0.9883241387150047
0.01260885030009337	2.042353725930854e-23	9.647566918338425e9	9.868814686357628e26	2854.8538428826655	2171.704335884507	8.164767084027273	0.9883241387150047
0.012656082196754048	2.0882781711725873e-23	9.647566918338425e9	9.868814686357628e26	2854.8538428826655	2171.704335884507	8.164767084027273	0.9883241387150047
0.012703491020890986	2.1347214679165667e-23	9.647566918338425e9	9.868814686357628e26	2854.8538428826655	2171.704335884507	8.164767084027273	0.9883241387150047
0.012751077435262494	2.1816895345548714e-23	9.647566918338425e9	9.868814686357628e26	2854.8538428826655	2171.704335884507	8.164767084027273	0.9883241387150047
0.012798842105109525	2.2291883569555694e-23	9.647566918338425e9	9.868814686357628e26	2854.8538428826655	2171.704335884507	8.164767084027273	0.9883241387150047
0.01284678569816498	2.2772239892300782e-23	9.647566918338425e9	9.868814686357628e26	2854.8538428826655	2171.704335884507	8.164767084027273	0.9883241387150047
0.012894908884663046	2.3258025545092048e-23	9.647566918338425e9	9.868814686357628e26	2854.8538428826655	2171.704335884507	8.164767084027273	0.9883241387150047
0.012943212337348556	2.374930245727997e-23	9.647566918338425e9	9.868814686357628e26	2854.8538428826655	2171.704335884507	8.164767084027273	0.9883241387150047
0.012991696731486403	2.4246133264195025e-23	9.647566918338425e9	9.868814686357628e26	2854.8538428826655	2171.704335884507	8.164767084027273	0.9883241387150047
0.013040362744870975	2.4748581315175226e-23	9.647566918338425e9	9.868814686357628e26	2854.8538428826655	2171.704335884507	8.164767084027273	0.9883241387150047
0.013089211057835634	2.5256710681684838e-23	9.647566918338425e9	9.868814686357628e26	2854.8538428826655	2171.704335884507	8.164767084027273	0.9883241387150047
0.013138242353262192	2.577058616552483e-23	9.647566918338425e9	9.868814686357628e26	2854.8538428826655	2171.704335884507	8.164767084027273	0.9883241387150047
0.013187457316590578	2.6290273307137917e-23	9.647566918338425e9	9.868814686357628e26	2854.8538428826655	2171.704335884507	8.164767084027273	0.9883241387150047
0.013236856635828246	2.68158383940049e-23	9.647566918338425e9	9.868814686357628e26	2854.8538428826655	2171.704335884507	8.164767084027273	0.9883241387150047
0.01328644100155991	2.734734846913922e-23	9.647566918338425e9	9.868814686357628e26	2854.8538428826655	2171.704335884507	8.164767084027273	0.9883241387150047
0.013336211106957164	2.788487133967632e-23	9.647566918338425e9	9.868814686357628e26	2854.8538428826655	2171.704335884507	8.164767084027273	0.9883241387150047
0.013386167647788178	2.8428466994255e-23	9.647566918338425e9	9.868814686357628e26	2854.8538428826655	2171.704335884507	8.164767084027273	0.9883241387150047
0.013436311322427423	2.897819438783553e-23	9.647566918338425e9	9.868814686357628e26	2854.8538428826655	2171.704335884507	8.164767084027273	0.9883241387150047
0.013486642831865429	2.953412267606163e-23	9.647566918338425e9	9.868814686357628e26	2854.8538428826655	2171.704335884507	8.164767084027273	0.9883241387150047
0.013537162879718595	3.0096321804682555e-23	9.647566918338425e9	9.868814686357628e26	2854.8538428826655	2171.704335884507	8.164767084027273	0.9883241387150047
0.013587872172239014	3.066486250843167e-23	9.647566918338425e9	9.868814686357628e26	2854.8538428826655	2171.704335884507	8.164767084027273	0.9883241387150047
0.013638771418324354	3.123981631992628e-23	9.647566918338425e9	9.868814686357628e26	2854.8538428826655	2171.704335884507	8.164767084027273	0.9883241387150047
0.013689861329527767	3.182125557866767e-23	9.647566918338425e9	9.868814686357628e26	2854.8538428826655	2171.704335884507	8.164767084027273	0.9883241387150047
0.01374114262006783	3.240925344014261e-23	9.647566918338425e9	9.868814686357628e26	2854.8538428826655	2171.704335884507	8.164767084027273	0.9883241387150047
0.013792616006838536	3.300388388502783e-23	9.647566918338425e9	9.868814686357628e26	2854.8538428826655	2171.704335884507	8.164767084027273	0.9883241387150047
0.01384428220941932	3.3605221728498017e-23	9.647566918338425e9	9.868814686357628e26	2854.8538428826655	2171.704335884507	8.164767084027273	0.9883241387150047
0.013896141950085103	3.421334262963877e-23	9.647566918338425e9	9.868814686357628e26	2854.8538428826655	2171.704335884507	8.164767084027273	0.9883241387150047
0.013948195953816406	3.482832310096614e-23	9.647566918338425e9	9.868814686357628e26	2854.8538428826655	2171.704335884507	8.164767084027273	0.9883241387150047
0.014000444948309477	3.545024051805304e-23	9.647566918338425e9	9.868814686357628e26	2854.8538428826655	2171.704335884507	8.164767084027273	0.9883241387150047
0.014052889663986459	3.607917312926458e-23	9.647566918338425e9	9.868814686357628e26	2854.8538428826655	2171.704335884507	8.164767084027273	0.9883241387150047
0.014105530834005614	3.671520006560319e-23	9.647566918338425e9	9.868814686357628e26	2854.8538428826655	2171.704335884507	8.164767084027273	0.9883241387150047
0.014158369194271563	3.735840135066456e-23	9.647566918338425e9	9.868814686357628e26	2854.8538428826655	2171.704335884507	8.164767084027273	0.9883241387150047
0.014211405483445542	3.8008857910705754e-23	9.647566918338425e9	9.868814686357628e26	2854.8538428826655	2171.704335884507	8.164767084027273	0.9883241387150047
0.014264640442955853	3.866665158482865e-23	9.647566918338425e9	9.868814686357628e26	2854.8538428826655	2171.704335884507	8.164767084027273	0.9883241387150047
0.014318074817008055	3.9331865135274664e-23	9.647566918338425e9	9.868814686357628e26	2854.8538428826655	2171.704335884507	8.164767084027273	0.9883241387150047
0.014371709352595472	4.000458225783899e-23	9.647566918338425e9	9.868814686357628e26	2854.8538428826655	2171.704335884507	8.164767084027273	0.9883241387150047
0.014425544799509615	4.068488759240074e-23	9.647566918338425e9	9.868814686357628e26	2854.8538428826655	2171.704335884507	8.164767084027273	0.9883241387150047
0.014479581910350668	4.137286673357232e-23	9.647566918338425e9	9.868814686357628e26	2854.8538428826655	2171.704335884507	8.164767084027273	0.9883241387150047
0.014533821440538	4.206860624146857e-23	9.647566918338425e9	9.868814686357628e26	2854.8538428826655	2171.704335884507	8.164767084027273	0.9883241387150047
0.014588264148320734	4.2772193652597607e-23	9.647566918338425e9	9.868814686357628e26	2854.8538428826655	2171.704335884507	8.164767084027273	0.9883241387150047
0.014642910794788338	4.348371749087459e-23	9.647566918338425e9	9.868814686357628e26	2854.8538428826655	2171.704335884507	8.164767084027273	0.9883241387150047
0.01469776214388127	4.42032672787595e-23	9.647566918338425e9	9.868814686357628e26	2854.8538428826655	2171.704335884507	8.164767084027273	0.9883241387150047
0.01475281896240166	4.493093354852079e-23	9.64756691833842e9	9.868814686357624e26	2854.8538428826646	2171.7043358845062	8.164767084027273	0.9883241387150047
0.014808082020024023	4.5666807853625833e-23	9.64756691833842e9	9.868814686357624e26	2854.8538428826646	2171.7043358845062	8.164767084027273	0.9883241387150047
0.014863552089306026	4.64109827802601e-23	9.64756691833842e9	9.868814686357624e26	2854.8538428826646	2171.7043358845062	8.164767084027273	0.9883241387150047
0.014919229945699285	4.7163551958976114e-23	9.64756691833842e9	9.868814686357624e26	2854.8538428826646	2171.7043358845062	8.164767084027273	0.9883241387150047
0.014975116367560198	4.7924610076473817e-23	9.64756691833842e9	9.868814686357624e26	2854.8538428826646	2171.7043358845062	8.164767084027273	0.9883241387150047
0.015031212136160842	4.869425288751397e-23	9.64756691833842e9	9.868814686357624e26	2854.8538428826646	2171.7043358845062	8.164767084027273	0.9883241387150047
0.015087518035699883	4.947257722696575e-23	9.64756691833842e9	9.868814686357624e26	2854.8538428826646	2171.7043358845062	8.164767084027273	0.9883241387150047
0.01514403485331354	5.025968102199024e-23	9.64756691833842e9	9.868814686357624e26	2854.8538428826646	2171.7043358845062	8.164767084027273	0.9883241387150047
0.01520076337908659	5.10556633043615e-23	9.64756691833842e9	9.868814686357624e26	2854.8538428826646	2171.7043358845062	8.164767084027273	0.9883241387150047
0.015257704406063418	5.18606242229266e-23	9.64756691833842e9	9.868814686357624e26	2854.8538428826646	2171.7043358845062	8.164767084027273	0.9883241387150047
0.015314858730259099	5.2674665056206024e-23	9.64756691833842e9	9.868814686357624e26	2854.8538428826646	2171.7043358845062	8.164767084027273	0.9883241387150047
0.01537222715067052	5.349788822513641e-23	9.64756691833842e9	9.868814686357624e26	2854.8538428826646	2171.7043358845062	8.164767084027273	0.9883241387150047
0.015429810469287568	5.433039730595689e-23	9.64756691833842e9	9.868814686357624e26	2854.8538428826646	2171.7043358845062	8.164767084027273	0.9883241387150047
0.015487609491104315	5.517229704324078e-23	9.64756691833842e9	9.868814686357624e26	2854.8538428826646	2171.7043358845062	8.164767084027273	0.9883241387150047
0.015545625024130299	5.602369336307456e-23	9.64756691833842e9	9.868814686357624e26	2854.8538428826646	2171.7043358845062	8.164767084027273	0.9883241387150047
0.015603857879401798	5.688469338638495e-23	9.64756691833842e9	9.868814686357624e26	2854.8538428826646	2171.7043358845062	8.164767084027273	0.9883241387150047
0.015662308870993184	5.775540544241697e-23	9.64756691833842e9	9.868814686357624e26	2854.8538428826646	2171.7043358845062	8.164767084027273	0.9883241387150047
0.01572097881602829	5.863593908236338e-23	9.64756691833842e9	9.868814686357624e26	2854.8538428826646	2171.7043358845062	8.164767084027273	0.9883241387150047
0.015779868534691807	5.952640509314794e-23	9.64756691833842e9	9.868814686357624e26	2854.8538428826646	2171.7043358845062	8.164767084027273	0.9883241387150047
0.015838978850240885	6.042691551136623e-23	9.64756691833842e9	9.868814686357624e26	2854.8538428826646	2171.7043358845062	8.164767084027273	0.9883241387150047
0.015898310589016442	6.133758363737913e-23	9.64756691833842e9	9.868814686357624e26	2854.8538428826646	2171.7043358845062	8.164767084027273	0.9883241387150047
0.015957864580454832	6.22585240495695e-23	9.64756691833842e9	9.868814686357624e26	2854.8538428826646	2171.7043358845062	8.164767084027273	0.9883241387150047
