r[m]	M[Msun]	rho[g/cm^3]	P[N/m^2]	n_e[pm^-3]	n_p[pm^-3]	muF_e[MeV]	B
0.009999999999999998	0.	538338.1768865924	9.713201507425687e20	0.1603292337840175	0.4859076315821762	0.09819129056424745	0.9998217515295399
0.010041905963057887	1.4514893617607856e-29	538338.1768865924	9.713201507425687e20	0.1603292337840175	0.4859076315821762	0.09819129056424745	0.9998217515295399
0.010083987537089755	2.960726952486955e-29	538338.1768865924	9.713201507425687e20	0.1603292337840175	0.4859076315821762	0.09819129056424745	0.9998217515295399
0.010126245458010346	4.526806049872747e-29	538338.1768865924	9.713201507425687e20	0.1603292337840175	0.4859076315821762	0.09819129056424745	0.9998217515295399
0.010168680464818194	6.148786503848015e-29	538338.1768865924	9.713201507425687e20	0.1603292337840175	0.4859076315821762	0.09819129056424745	0.9998217515295399
0.010211293299608808	7.825694095425966e-29	538338.1768865924	9.713201507425687e20	0.1603292337840175	0.4859076315821762	0.09819129056424745	0.9998217515295399
0.010254084707587473	9.556519885454497e-29	538338.1768865924	9.713201507425687e20	0.1603292337840175	0.4859076315821762	0.09819129056424745	0.9998217515295399
0.010297055437082335	1.1340219553152332e-28	538338.1768865924	9.713201507425687e20	0.1603292337840175	0.4859076315821762	0.09819129056424745	0.9998217515295399
0.010340206239557517	1.317571272427311e-28	538338.1768865924	9.713201507425687e20	0.1603292337840175	0.4859076315821762	0.09819129056424745	0.9998217515295399
0.0103835378696261	1.5061882288742559e-28	538338.1768865924	9.713201507425687e20	0.1603292337840175	0.4859076315821762	0.09819129056424745	0.9998217515295399
0.010427051085063574	1.6997573707642881e-28	538338.1768865924	9.713201507425687e20	0.1603292337840175	0.4859076315821762	0.09819129056424745	0.9998217515295399
0.010470746646820912	1.898159430935746e-28	538338.1768865924	9.713201507425687e20	0.1603292337840175	0.4859076315821762	0.09819129056424745	0.9998217515295399
0.01051462531903793	2.10127125747472e-28	538338.1768865924	9.713201507425687e20	0.1603292337840175	0.4859076315821762	0.09819129056424745	0.9998217515295399
0.010558687869056645	2.3089657411191134e-28	538338.1768865924	9.713201507425687e20	0.1603292337840175	0.4859076315821762	0.09819129056424745	0.9998217515295399
0.010602935067434732	2.5211117415336544e-28	538338.1768865924	9.713201507425687e20	0.1603292337840175	0.4859076315821762	0.09819129056424745	0.9998217515295399
0.010647367687958842	2.7375740124385515e-28	538338.1768865924	9.713201507425687e20	0.1603292337840175	0.4859076315821762	0.09819129056424745	0.9998217515295399
0.01069198650765838	2.9582131255783977e-28	538338.1768865924	9.713201507425687e20	0.1603292337840175	0.4859076315821762	0.09819129056424745	0.9998217515295399
0.010736792306818914	3.1828853935107876e-28	538338.1768865924	9.713201507425687e20	0.1603292337840175	0.4859076315821762	0.09819129056424745	0.9998217515295399
0.010781785868995891	3.4114427912011292e-28	538338.1768865924	9.713201507425687e20	0.1603292337840175	0.4859076315821762	0.09819129056424745	0.9998217515295399
0.010826967981028356	3.6437328764051368e-28	538338.1768865924	9.713201507425687e20	0.1603292337840175	0.4859076315821762	0.09819129056424745	0.9998217515295399
0.010872339433052547	3.8795987088211932e-28	538338.1768865924	9.713201507425687e20	0.1603292337840175	0.4859076315821762	0.09819129056424745	0.9998217515295399
0.010917901018515978	4.1188787679981235e-28	538338.1768865924	9.713201507425687e20	0.1603292337840175	0.4859076315821762	0.09819129056424745	0.9998217515295399
0.010963653534191138	4.3614068699763625e-28	538338.1768865924	9.713201507425687e20	0.1603292337840175	0.4859076315821762	0.09819129056424745	0.9998217515295399
0.011009597780189468	4.607012082647816e-28	538338.1768865924	9.713201507425687e20	0.1603292337840175	0.4859076315821762	0.09819129056424745	0.9998217515295399
0.011055734559975395	4.855518639815224e-28	538338.1768865924	9.713201507425687e20	0.1603292337840175	0.4859076315821762	0.09819129056424745	0.9998217515295399
0.01110206468038021	5.106745853931374e-28	538338.1768865924	9.713201507425687e20	0.1603292337840175	0.4859076315821762	0.09819129056424745	0.9998217515295399
0.01114858895161644	5.360508027502919e-28	538338.1768865924	9.713201507425687e20	0.1603292337840175	0.4859076315821762	0.09819129056424745	0.9998217515295399
0.011195308187291841	5.616614363135397e-28	538338.1768865924	9.713201507425687e20	0.1603292337840175	0.4859076315821762	0.09819129056424745	0.9998217515295399
0.011242223204423673	5.874868872203442e-28	538338.1768865924	9.713201507425687e20	0.1603292337840175	0.4859076315821762	0.09819129056424745	0.9998217515295399
0.01128933482345303	6.135070282125929e-28	538338.1768865924	9.713201507425687e20	0.1603292337840175	0.4859076315821762	0.09819129056424745	0.9998217515295399
0.011336643868259005	6.397011942224769e-28	538338.1768865924	9.713201507425687e20	0.1603292337840175	0.4859076315821762	0.09819129056424745	0.9998217515295399
0.011384151166173374	6.660481728151365e-28	538338.1768865924	9.713201507425687e20	0.1603292337840175	0.4859076315821762	0.09819129056424745	0.9998217515295399
0.01143185754799488	6.925261944855292e-28	538338.1768865924	9.713201507425687e20	0.1603292337840175	0.4859076315821762	0.09819129056424745	0.9998217515295399
0.011479763848003813	7.1911292280785935e-28	538338.1768865924	9.713201507425687e20	0.1603292337840175	0.4859076315821762	0.09819129056424745	0.9998217515295399
0.011527870903976585	7.457854444353151e-28	538338.1768865924	9.713201507425687e20	0.1603292337840175	0.4859076315821762	0.09819129056424745	0.9998217515295399
0.011576179557200448	7.7252025894808795e-28	538338.1768865924	9.713201507425687e20	0.1603292337840175	0.4859076315821762	0.09819129056424745	0.9998217515295399
0.011624690652488	7.9929326854734545e-28	538338.1768865924	9.713201507425687e20	0.1603292337840175	0.4859076315821762	0.09819129056424745	0.9998217515295399
0.011673405038192251	8.260797675934142e-28	538338.1768865924	9.713201507425687e20	0.1603292337840175	0.4859076315821762	0.09819129056424745	0.9998217515295399
0.011722323566221276	8.528544319854395e-28	538338.1768865924	9.713201507425687e20	0.1603292337840175	0.4859076315821762	0.09819129056424745	0.9998217515295399
0.011771447092053144	8.795913083806803e-28	538338.1768865924	9.713201507425687e20	0.1603292337840175	0.4859076315821762	0.09819129056424745	0.9998217515295399
0.011820776474750938	9.06263803251079e-28	538338.1768865924	9.713201507425687e20	0.1603292337840175	0.4859076315821762	0.09819129056424745	0.9998217515295399
0.011870312576977585	9.32844671774667e-28	538338.1768865924	9.713201507425687e20	0.1603292337840175	0.4859076315821762	0.09819129056424745	0.9998217515295399
0.011920056265011225	9.593060065598978e-28	538338.1768865924	9.713201507425687e20	0.1603292337840175	0.4859076315821762	0.09819129056424745	0.9998217515295399
0.011970008408760174	9.856192262000234e-28	538338.1768865924	9.713201507425687e20	0.1603292337840175	0.4859076315821762	0.09819129056424745	0.9998217515295399
0.012020169881778188	1.0117550636555448e-27	538338.1768865924	9.713201507425687e20	0.1603292337840175	0.4859076315821762	0.09819129056424745	0.9998217515295399
0.01207054156127977	1.0376835544621675e-27	538338.1768865924	9.713201507425687e20	0.1603292337840175	0.4859076315821762	0.09819129056424745	0.9998217515295399
0.012121124328155338	1.0633740247617295e-27	538338.1768865924	9.713201507425687e20	0.1603292337840175	0.4859076315821762	0.09819129056424745	0.9998217515295399
0.012171919066986912	1.089040314944928e-27	538338.1768865924	9.713201507425687e20	0.1603292337840175	0.4859076315821762	0.09819129056424745	0.9998217515295399
0.012222926666063387	1.1156269634305229e-27	538338.1768865924	9.713201507425687e20	0.1603292337840175	0.4859076315821762	0.09819129056424745	0.9998217515295399
0.012274148017396121	1.1432120450190833e-27	538338.1768865924	9.713201507425687e20	0.1603292337840175	0.4859076315821762	0.09819129056424745	0.9998217515295399
0.012325584016734574	1.1717731336838491e-27	538338.1768865924	9.713201507425687e20	0.1603292337840175	0.4859076315821762	0.09819129056424745	0.9998217515295399
0.012377235563581793	1.2012870559373194e-27	538338.1768865924	9.713201507425687e20	0.1603292337840175	0.4859076315821762	0.09819129056424745	0.9998217515295399
0.012429103561210417	1.231729876782218e-27	538338.1768865924	9.713201507425687e20	0.1603292337840175	0.4859076315821762	0.09819129056424745	0.9998217515295399
0.012481188916678291	1.2630768854431254e-27	538338.1768865924	9.713201507425687e20	0.1603292337840175	0.4859076315821762	0.09819129056424745	0.9998217515295399
0.012533492540844375	1.2953025808759942e-27	538338.1768865924	9.713201507425687e20	0.1603292337840175	0.4859076315821762	0.09819129056424745	0.9998217515295399
0.012586015348384669	1.32838065705226e-27	538338.1768865924	9.713201507425687e20	0.1603292337840175	0.4859076315821762	0.09819129056424745	0.9998217515295399
0.012638758257808263	1.3622839880143665e-27	538338.1768865924	9.713201507425687e20	0.1603292337840175	0.4859076315821762	0.09819129056424745	0.9998217515295399
0.01269172219147319	1.3969846126992673e-27	538338.1768865924	9.713201507425687e20	0.1603292337840175	0.4859076315821762	0.09819129056424745	0.9998217515295399
0.012744908075602876	1.432453719527077e-27	538338.1768865924	9.713201507425687e20	0.1603292337840175	0.4859076315821762	0.09819129056424745	0.9998217515295399
0.012798316840302115	1.4686616307508767e-27	538338.1768865924	9.713201507425687e20	0.1603292337840175	0.4859076315821762	0.09819129056424745	0.9998217515295399
0.012851949419573398	1.5055777865647773e-27	538338.1768865924	9.713201507425687e20	0.1603292337840175	0.4859076315821762	0.09819129056424745	0.9998217515295399
0.012905806751333302	1.5431707289666386e-27	538338.1768865924	9.713201507425687e20	0.1603292337840175	0.4859076315821762	0.09819129056424745	0.9998217515295399
0.01295988977742866	1.5814080853717416e-27	538338.1768865924	9.713201507425687e20	0.1603292337840175	0.4859076315821762	0.09819129056424745	0.9998217515295399
0.013014199443653384	1.620256551974508e-27	538338.1768865924	9.713201507425687e20	0.1603292337840175	0.4859076315821762	0.09819129056424745	0.9998217515295399
0.013068736699764757	1.659681876853845e-27	538338.1768865924	9.713201507425687e20	0.1603292337840175	0.4859076315821762	0.09819129056424745	0.9998217515295399
0.013123502499500117	1.699648842819131e-27	538338.1768865924	9.713201507425687e20	0.1603292337840175	0.4859076315821762	0.09819129056424745	0.9998217515295399
0.013178497800593585	1.740121249992932e-27	538338.1768865924	9.713201507425687e20	0.1603292337840175	0.4859076315821762	0.09819129056424745	0.9998217515295399
0.0132337235647926	1.7810618981265266e-27	538338.1768865924	9.713201507425687e20	0.1603292337840175	0.4859076315821762	0.09819129056424745	0.9998217515295399
0.013289180757875049	1.8224325686450593e-27	538338.1768865924	9.713201507425687e20	0.1603292337840175	0.4859076315821762	0.09819129056424745	0.9998217515295399
0.013344870349665958	1.864194006417702e-27	538338.1768865924	9.713201507425687e20	0.1603292337840175	0.4859076315821762	0.09819129056424745	0.9998217515295399
0.0134007933140545	1.9063059012495397e-27	538338.1768865924	9.713201507425687e20	0.1603292337840175	0.4859076315821762	0.09819129056424745	0.9998217515295399
0.013456950629011016	1.9487268690909664e-27	538338.1768865924	9.713201507425687e20	0.1603292337840175	0.4859076315821762	0.09819129056424745	0.9998217515295399
0.013513343276604186	1.991414432960763e-27	538338.1768865924	9.713201507425687e20	0.1603292337840175	0.4859076315821762	0.09819129056424745	0.9998217515295399
0.01356997224301798	2.0343250035784823e-27	538338.1768865924	9.713201507425687e20	0.1603292337840175	0.4859076315821762	0.09819129056424745	0.9998217515295399
0.013626838518569226	2.0774138597027184e-27	538338.1768865924	9.713201507425687e20	0.1603292337840175	0.4859076315821762	0.09819129056424745	0.9998217515295399
0.013683943097724723	2.1206351281702714e-27	538338.1768865924	9.713201507425687e20	0.1603292337840175	0.4859076315821762	0.09819129056424745	0.9998217515295399
0.013741286979118672	2.1639417636325913e-27	538338.1768865924	9.713201507425687e20	0.1603292337840175	0.4859076315821762	0.09819129056424745	0.9998217515295399
0.013798871165570206	2.2072855279850748e-27	538338.1768865924	9.713201507425687e20	0.1603292337840175	0.4859076315821762	0.09819129056424745	0.9998217515295399
0.013856696664100701	2.250616969484642e-27	538338.1768865924	9.713201507425687e20	0.1603292337840175	0.4859076315821762	0.09819129056424745	0.9998217515295399
0.013914764485951718	2.293885401551857e-27	538338.1768865924	9.713201507425687e20	0.1603292337840175	0.4859076315821762	0.09819129056424745	0.9998217515295399
0.01397307564660247	2.337038881252327e-27	538338.1768865924	9.713201507425687e20	0.1603292337840175	0.4859076315821762	0.09819129056424745	0.9998217515295399
0.014031631165787628	2.3800241874534722e-27	538338.1768865924	9.713201507425687e20	0.1603292337840175	0.4859076315821762	0.09819129056424745	0.9998217515295399
0.014090432067515226	2.4227867986519386e-27	538338.1768865924	9.713201507425687e20	0.1603292337840175	0.4859076315821762	0.09819129056424745	0.9998217515295399
0.014149479380084321	2.4652708704667805e-27	538338.1768865924	9.713201507425687e20	0.1603292337840175	0.4859076315821762	0.09819129056424745	0.9998217515295399
0.014208774136103337	2.507419212794396e-27	538338.1768865924	9.713201507425687e20	0.1603292337840175	0.4859076315821762	0.09819129056424745	0.9998217515295399
0.01426831737250788	2.5491732666195883e-27	538338.1768865924	9.713201507425687e20	0.1603292337840175	0.4859076315821762	0.09819129056424745	0.9998217515295399
0.014328110130578933	2.5911467129436975e-27	538338.1768865924	9.713201507425687e20	0.1603292337840175	0.4859076315821762	0.09819129056424745	0.9998217515295399
0.01438815345596113	2.6348204488665048e-27	538338.1768865924	9.713201507425687e20	0.1603292337840175	0.4859076315821762	0.09819129056424745	0.9998217515295399
0.014448448398680805	2.6802378884903365e-27	538338.1768865924	9.713201507425687e20	0.1603292337840175	0.4859076315821762	0.09819129056424745	0.9998217515295399
0.014508996013164696	2.7273849164776727e-27	538338.1768865924	9.713201507425687e20	0.1603292337840175	0.4859076315821762	0.09819129056424745	0.9998217515295399
0.014569797358258167	2.776246742487614e-27	538338.1768865924	9.713201507425687e20	0.1603292337840175	0.4859076315821762	0.09819129056424745	0.9998217515295399
0.014630853497243777	2.826807887671476e-27	538338.1768865924	9.713201507425687e20	0.1603292337840175	0.4859076315821762	0.09819129056424745	0.9998217515295399
0.014692165497859922	2.8790521709526243e-27	538338.1768865924	9.713201507425687e20	0.1603292337840175	0.4859076315821762	0.09819129056424745	0.9998217515295399
0.01475373443231929	2.932962695087243e-27	538338.1768865924	9.713201507425687e20	0.1603292337840175	0.4859076315821762	0.09819129056424745	0.9998217515295399
0.014815561377327957	2.988521832503567e-27	538338.1768865924	9.713201507425687e20	0.1603292337840175	0.4859076315821762	0.09819129056424745	0.9998217515295399
0.014877647414103974	3.0457112109154097e-27	538338.1768865924	9.713201507425687e20	0.1603292337840175	0.4859076315821762	0.09819129056424745	0.9998217515295399
0.014939993628396347	3.104511698707477e-27	538338.1768865924	9.713201507425687e20	0.1603292337840175	0.4859076315821762	0.09819129056424745	0.9998217515295399
0.015002601110504013	3.1649033900888716e-27	538338.1768865924	9.713201507425687e20	0.1603292337840175	0.4859076315821762	0.09819129056424745	0.9998217515295399
0.015065470955294976	3.2268655900115776e-27	538338.1768865924	9.713201507425687e20	0.1603292337840175	0.4859076315821762	0.09819129056424745	0.9998217515295399
0.015128604262225202	3.2903767988501494e-27	538338.1768865924	9.713201507425687e20	0.1603292337840175	0.4859076315821762	0.09819129056424745	0.9998217515295399
0.015192002135358224	3.355414696840115e-27	538338.1768865924	9.713201507425687e20	0.1603292337840175	0.4859076315821762	0.09819129056424745	0.9998217515295399
0.01525566568338419	3.4219561282703905e-27	538338.1768865924	9.713201507425687e20	0.1603292337840175	0.4859076315821762	0.09819129056424745	0.9998217515295399
0.015319596019639328	3.4899770854270945e-27	538338.1768865924	9.713201507425687e20	0.1603292337840175	0.4859076315821762	0.09819129056424745	0.9998217515295399
0.015383794262125468	3.559452692284893e-27	538338.1768865924	9.713201507425687e20	0.1603292337840175	0.4859076315821762	0.09819129056424745	0.9998217515295399
0.015448261533529347	3.630357187941904e-27	538338.1768865924	9.713201507425687e20	0.1603292337840175	0.4859076315821762	0.09819129056424745	0.9998217515295399
0.015512998961242613	3.702663909795529e-27	538338.1768865924	9.713201507425687e20	0.1603292337840175	0.4859076315821762	0.09819129056424745	0.9998217515295399
0.015578007677381302	3.776345276454113e-27	538338.1768865924	9.713201507425687e20	0.1603292337840175	0.4859076315821762	0.09819129056424745	0.9998217515295399
0.015643288818805685	3.851372770381688e-27	538338.1768865924	9.713201507425687e20	0.1603292337840175	0.4859076315821762	0.09819129056424745	0.9998217515295399
0.015708843527140224	3.927716920271647e-27	538338.1768865924	9.713201507425687e20	0.1603292337840175	0.4859076315821762	0.09819129056424745	0.9998217515295399
0.01577467294879327	4.005347283145089e-27	538338.1768865924	9.713201507425687e20	0.1603292337840175	0.4859076315821762	0.09819129056424745	0.9998217515295399
0.01584077823497751	4.084232426171055e-27	538338.1768865924	9.713201507425687e20	0.1603292337840175	0.4859076315821762	0.09819129056424745	0.9998217515295399
0.015907160541729828	4.164339908203115e-27	538338.1768865924	9.713201507425687e20	0.1603292337840175	0.4859076315821762	0.09819129056424745	0.9998217515295399
0.01597382102993159	4.245636261029481e-27	538338.1768865924	9.713201507425687e20	0.1603292337840175	0.4859076315821762	0.09819129056424745	0.9998217515295399
0.016040760865328952	4.328086970332037e-27	538338.1768865924	9.713201507425687e20	0.1603292337840175	0.4859076315821762	0.09819129056424745	0.9998217515295399
0.016107981218553308	4.411656456350346e-27	538338.1768865924	9.713201507425687e20	0.1603292337840175	0.4859076315821762	0.09819129056424745	0.9998217515295399
0.016175483265141493	4.496308054245887e-27	538338.1768865924	9.713201507425687e20	0.1603292337840175	0.4859076315821762	0.09819129056424745	0.9998217515295399
0.016243268185556742	4.582003994163548e-27	538338.1768865924	9.713201507425687e20	0.1603292337840175	0.4859076315821762	0.09819129056424745	0.9998217515295399
0.01631133716520907	4.668705380984414e-27	538338.1768865924	9.713201507425687e20	0.1603292337840175	0.4859076315821762	0.09819129056424745	0.9998217515295399
0.01637969139447607	4.756372173766639e-27	538338.1768865924	9.713201507425687e20	0.1603292337840175	0.4859076315821762	0.09819129056424745	0.9998217515295399
0.016448332068723794	4.8449631648696585e-27	538338.1768865924	9.713201507425687e20	0.1603292337840175	0.4859076315821762	0.09819129056424745	0.9998217515295399
0.016517260388327373	4.9344359587567225e-27	538338.1768865924	9.713201507425687e20	0.1603292337840175	0.4859076315821762	0.09819129056424745	0.9998217515295399
0.01658647755869245	5.024746950472593e-27	538338.1768865924	9.713201507425687e20	0.1603292337840175	0.4859076315821762	0.09819129056424745	0.9998217515295399
0.016655984790275954	5.1158513037899254e-27	538338.1768865924	9.713201507425687e20	0.1603292337840175	0.4859076315821762	0.09819129056424745	0.9998217515295399
0.01672578329860736	5.207702929021065e-27	538338.1768865924	9.713201507425687e20	0.1603292337840175	0.4859076315821762	0.09819129056424745	0.9998217515295399
0.016795874304309996	5.300254460490066e-27	538338.1768865924	9.713201507425687e20	0.1603292337840175	0.4859076315821762	0.09819129056424745	0.9998217515295399
