r[m]	M[Msun]	rho[g/cm^3]	P[N/m^2]	n_e[pm^-3]	n_p[pm^-3]	muF_e[MeV]	B
0.009999999999999986	-1.3016895577244853e-38	1.6121493258097317e9	9.033032473003497e25	477.79963749364674	363.46821849169623	4.289079616074101	0.9936408777989505
0.010038449963452736	3.9723420743667643e-26	1.6121493258097317e9	9.033032473003497e25	477.79963749364674	363.46821849169623	4.289079616074101	0.9936408777989505
0.0100770477668744	8.05288390096093e-26	1.6121493258097317e9	9.033032473003497e25	477.79963749364674	363.46821849169623	4.289079616074101	0.9936408777989505
0.010115793978709195	1.2212771977458313e-25	1.6121493258097317e9	9.033032473003497e25	477.79963749364674	363.46821849169623	4.289079616074101	0.9936408777989505
0.010154689169586888	1.6422469130628835e-25	1.6121493258097317e9	9.033032473003497e25	477.79963749364674	363.46821849169623	4.289079616074101	0.9936408777989505
0.010193733912331313	2.0651743454354148e-25	1.6121493258097317e9	9.033032473003497e25	477.79963749364674	363.46821849169623	4.289079616074101	0.9936408777989505
0.010232928781968935	2.48696570935814e-25	1.6121493258097317e9	9.033032473003497e25	477.79963749364674	363.46821849169623	4.289079616074101	0.9936408777989505
0.010272274355737025	2.911589103298682e-25	1.6121493258097317e9	9.033032473003497e25	477.79963749364674	363.46821849169623	4.289079616074101	0.9936408777989505
0.010311771213092496	3.3479962909221255e-25	1.6121493258097317e9	9.033032473003497e25	477.79963749364674	363.46821849169623	4.289079616074101	0.9936408777989505
0.010351419935720151	3.79322329131085e-25	1.6121493258097317e9	9.033032473003497e25	477.79963749364674	363.46821849169623	4.289079616074101	0.9936408777989505
0.01039122110754136	4.24403221273647e-25	1.6121493258097317e9	9.033032473003497e25	477.79963749364674	363.46821849169623	4.289079616074101	0.9936408777989505
0.010431175314722804	4.697108982583013e-25	1.6121493258097317e9	9.033032473003497e25	477.79963749364674	363.46821849169623	4.289079616074101	0.9936408777989505
0.010471283145684837	5.149062117324315e-25	1.6121493258097317e9	9.033032473003497e25	477.79963749364674	363.46821849169623	4.289079616074101	0.9936408777989505
0.010511545191110293	5.604273663290369e-25	1.6121493258097317e9	9.033032473003497e25	477.79963749364674	363.46821849169623	4.289079616074101	0.9936408777989505
0.010551962043953308	6.073707877028887e-25	1.6121493258097317e9	9.033032473003497e25	477.79963749364674	363.46821849169623	4.289079616074101	0.9936408777989505
0.010592534299447792	6.555914409597823e-25	1.6121493258097317e9	9.033032473003497e25	477.79963749364674	363.46821849169623	4.289079616074101	0.9936408777989505
0.010633262555116325	7.049182914491294e-25	1.6121493258097317e9	9.033032473003497e25	477.79963749364674	363.46821849169623	4.289079616074101	0.9936408777989505
0.0106741474107791	7.551761560801848e-25	1.6121493258097317e9	9.033032473003497e25	477.79963749364674	363.46821849169623	4.289079616074101	0.9936408777989505
0.01071518946856243	8.061856357507456e-25	1.6121493258097317e9	9.033032473003497e25	477.79963749364674	363.46821849169623	4.289079616074101	0.9936408777989505
0.010756389332907984	8.577630468328835e-25	1.6121493258097317e9	9.033032473003497e25	477.79963749364674	363.46821849169623	4.289079616074101	0.9936408777989505
0.010797747610581372	9.097203517017893e-25	1.6121493258097317e9	9.033032473003497e25	477.79963749364674	363.46821849169623	4.289079616074101	0.9936408777989505
0.010839264910681216	9.618650882967928e-25	1.6121493258097317e9	9.033032473003497e25	477.79963749364674	363.46821849169623	4.289079616074101	0.9936408777989505
0.010880941844648254	1.0140002987014206e-24	1.6121493258097317e9	9.033032473003497e25	477.79963749364674	363.46821849169623	4.289079616074101	0.9936408777989505
0.010922779026274079	1.065924456729402e-24	1.6121493258097317e9	9.033032473003497e25	477.79963749364674	363.46821849169623	4.289079616074101	0.9936408777989505
0.010964777071710306	1.1175064626447773e-24	1.6121493258097317e9	9.033032473003497e25	477.79963749364674	363.46821849169623	4.289079616074101	0.9936408777989505
0.011006936599477789	1.1701808565483452e-24	1.6121493258097317e9	9.033032473003497e25	477.79963749364674	363.46821849169623	4.289079616074101	0.9936408777989505
0.011049258230475457	1.2244177312124006e-24	1.6121493258097317e9	9.033032473003497e25	477.79963749364674	363.46821849169623	4.289079616074101	0.9936408777989505
0.011091742587989591	1.2800149628596738e-24	1.6121493258097317e9	9.033032473003497e25	477.79963749364674	363.46821849169623	4.289079616074101	0.9936408777989505
0.011134390297703143	1.3367655155734942e-24	1.6121493258097317e9	9.033032473003497e25	477.79963749364674	363.46821849169623	4.289079616074101	0.9936408777989505
0.011177201987704633	1.3944573612394466e-24	1.6121493258097317e9	9.033032473003497e25	477.79963749364674	363.46821849169623	4.289079616074101	0.9936408777989505
0.01122017828849776	1.4528733983693727e-24	1.6121493258097317e9	9.033032473003497e25	477.79963749364674	363.46821849169623	4.289079616074101	0.9936408777989505
0.01126331983301037	1.5117913697914697e-24	1.6121493258097317e9	9.033032473003497e25	477.79963749364674	363.46821849169623	4.289079616074101	0.9936408777989505
0.011306627256603913	1.5709837791933053e-24	1.6121493258097317e9	9.033032473003497e25	477.79963749364674	363.46821849169623	4.289079616074101	0.9936408777989505
0.011350101197082945	1.6302178065023364e-24	1.6121493258097317e9	9.033032473003497e25	477.79963749364674	363.46821849169623	4.289079616074101	0.9936408777989505
0.011393742294704232	1.68925522208831e-24	1.6121493258097317e9	9.033032473003497e25	477.79963749364674	363.46821849169623	4.289079616074101	0.9936408777989505
0.01143755119218633	1.747866656831268e-24	1.6121493258097317e9	9.033032473003497e25	477.79963749364674	363.46821849169623	4.289079616074101	0.9936408777989505
0.011481528534719185	1.8067491034422156e-24	1.6121493258097317e9	9.033032473003497e25	477.79963749364674	363.46821849169623	4.289079616074101	0.9936408777989505
0.011525674969973351	1.86640544715608e-24	1.6121493258097317e9	9.033032473003497e25	477.79963749364674	363.46821849169623	4.289079616074101	0.9936408777989505
0.011569991148109682	1.9268428819257498e-24	1.6121493258097317e9	9.033032473003497e25	477.79963749364674	363.46821849169623	4.289079616074101	0.9936408777989505
0.01161447772178903	1.9880686618662227e-24	1.6121493258097317e9	9.033032473003497e25	477.79963749364674	363.46821849169623	4.289079616074101	0.9936408777989505
0.011659135346181588	2.050090101736003e-24	1.6121493258097317e9	9.033032473003497e25	477.79963749364674	363.46821849169623	4.289079616074101	0.9936408777989505
0.011703964678976676	2.1129145774227967e-24	1.6121493258097317e9	9.033032473003497e25	477.79963749364674	363.46821849169623	4.289079616074101	0.9936408777989505
0.011748966380392571	2.1765495264330413e-24	1.6121493258097317e9	9.033032473003497e25	477.79963749364674	363.46821849169623	4.289079616074101	0.9936408777989505
0.011794141113185892	2.241002448384605e-24	1.6121493258097317e9	9.033032473003497e25	477.79963749364674	363.46821849169623	4.289079616074101	0.9936408777989505
0.011839489542661752	2.3062809055043777e-24	1.6121493258097317e9	9.033032473003497e25	477.79963749364674	363.46821849169623	4.289079616074101	0.9936408777989505
0.011885012336683211	2.3723925231287348e-24	1.6121493258097317e9	9.033032473003497e25	477.79963749364674	363.46821849169623	4.289079616074101	0.9936408777989505
0.01193071016568126	2.4393449902085897e-24	1.6121493258097317e9	9.033032473003497e25	477.79963749364674	363.46821849169623	4.289079616074101	0.9936408777989505
0.011976583702664842	2.5071460598184847e-24	1.6121493258097317e9	9.033032473003497e25	477.79963749364674	363.46821849169623	4.289079616074101	0.9936408777989505
0.01202263362323047	2.5758035496689603e-24	1.6121493258097317e9	9.033032473003497e25	477.79963749364674	363.46821849169623	4.289079616074101	0.9936408777989505
0.012068860605572324	2.645325342623619e-24	1.6121493258097317e9	9.033032473003497e25	477.79963749364674	363.46821849169623	4.289079616074101	0.9936408777989505
0.012115265330492384	2.715719387220269e-24	1.6121493258097317e9	9.033032473003497e25	477.79963749364674	363.46821849169623	4.289079616074101	0.9936408777989505
0.012161848481410166	2.786993698195463e-24	1.6121493258097317e9	9.033032473003497e25	477.79963749364674	363.46821849169623	4.289079616074101	0.9936408777989505
0.01220861074437293	2.859156357013822e-24	1.6121493258097317e9	9.033032473003497e25	477.79963749364674	363.46821849169623	4.289079616074101	0.9936408777989505
0.01225555280806593	2.9322155124015263e-24	1.6121493258097317e9	9.033032473003497e25	477.79963749364674	363.46821849169623	4.289079616074101	0.9936408777989505
0.01230267536382222	3.0061793808832314e-24	1.6121493258097317e9	9.033032473003497e25	477.79963749364674	363.46821849169623	4.289079616074101	0.9936408777989505
0.012349979105633223	3.081056247324338e-24	1.6121493258097317e9	9.033032473003497e25	477.79963749364674	363.46821849169623	4.289079616074101	0.9936408777989505
0.012397464730158608	3.1568544654763382e-24	1.6121493258097317e9	9.033032473003497e25	477.79963749364674	363.46821849169623	4.289079616074101	0.9936408777989505
0.012445132936736695	3.2335824585272365e-24	1.6121493258097317e9	9.033032473003497e25	477.79963749364674	363.46821849169623	4.289079616074101	0.9936408777989505
0.012492984427394912	3.311248719656307e-24	1.6121493258097317e9	9.033032473003497e25	477.79963749364674	363.46821849169623	4.289079616074101	0.9936408777989505
0.012541019906859824	3.389861812592431e-24	1.6121493258097317e9	9.033032473003497e25	477.79963749364674	363.46821849169623	4.289079616074101	0.9936408777989505
0.012589240082567671	3.469430372177574e-24	1.6121493258097317e9	9.033032473003497e25	477.79963749364674	363.46821849169623	4.289079616074101	0.9936408777989505
0.012637645664674936	3.549963104934689e-24	1.6121493258097317e9	9.033032473003497e25	477.79963749364674	363.46821849169623	4.289079616074101	0.9936408777989505
0.012686237366068494	3.631468789639285e-24	1.6121493258097317e9	9.033032473003497e25	477.79963749364674	363.46821849169623	4.289079616074101	0.9936408777989505
0.012735015902376268	3.713956277896255e-24	1.6121493258097317e9	9.033032473003497e25	477.79963749364674	363.46821849169623	4.289079616074101	0.9936408777989505
0.012783981991977925	3.7974344947212575e-24	1.6121493258097317e9	9.033032473003497e25	477.79963749364674	363.46821849169623	4.289079616074101	0.9936408777989505
0.012833136356015091	3.8819124391257055e-24	1.6121493258097317e9	9.033032473003497e25	477.79963749364674	363.46821849169623	4.289079616074101	0.9936408777989505
0.012882479718402388	3.967399184707768e-24	1.6121493258097317e9	9.033032473003497e25	477.79963749364674	363.46821849169623	4.289079616074101	0.9936408777989505
0.012932012805837726	4.053903880246534e-24	1.6121493258097317e9	9.033032473003497e25	477.79963749364674	363.46821849169623	4.289079616074101	0.9936408777989505
0.012981736347813171	4.141435750301878e-24	1.6121493258097317e9	9.033032473003497e25	477.79963749364674	363.46821849169623	4.289079616074101	0.9936408777989505
0.01303165107662584	4.230004095818903e-24	1.6121493258097317e9	9.033032473003497e25	477.79963749364674	363.46821849169623	4.289079616074101	0.9936408777989505
0.013081757727388366	4.3196182947363635e-24	1.6121493258097317e9	9.033032473003497e25	477.79963749364674	363.46821849169623	4.289079616074101	0.9936408777989505
0.013132057038039897	4.4102878026006616e-24	1.6121493258097317e9	9.033032473003497e25	477.79963749364674	363.46821849169623	4.289079616074101	0.9936408777989505
0.013182549749357104	4.502022153184657e-24	1.6121493258097317e9	9.033032473003497e25	477.79963749364674	363.46821849169623	4.289079616074101	0.9936408777989505
0.013233236604964789	4.594830959110483e-24	1.6121493258097317e9	9.033032473003497e25	477.79963749364674	363.46821849169623	4.289079616074101	0.9936408777989505
0.013284118351346987	4.6887239124780795e-24	1.6121493258097317e9	9.033032473003497e25	477.79963749364674	363.46821849169623	4.289079616074101	0.9936408777989505
0.01333519573785812	4.783710785498672e-24	1.6121493258097317e9	9.033032473003497e25	477.79963749364674	363.46821849169623	4.289079616074101	0.9936408777989505
0.013386469516733657	4.879801431132211e-24	1.6121493258097317e9	9.033032473003497e25	477.79963749364674	363.46821849169623	4.289079616074101	0.9936408777989505
0.013437940443101636	4.9770057837313224e-24	1.6121493258097317e9	9.033032473003497e25	477.79963749364674	363.46821849169623	4.289079616074101	0.9936408777989505
0.013489609274993387	5.075333859688748e-24	1.6121493258097317e9	9.033032473003497e25	477.79963749364674	363.46821849169623	4.289079616074101	0.9936408777989505
0.013541476773354872	5.1747957580908984e-24	1.6121493258097317e9	9.033032473003497e25	477.79963749364674	363.46821849169623	4.289079616074101	0.9936408777989505
0.013593543702058048	5.275401661376545e-24	1.6121493258097317e9	9.033032473003497e25	477.79963749364674	363.46821849169623	4.289079616074101	0.9936408777989505
0.013645810827911801	5.3771618359996925e-24	1.6121493258097317e9	9.033032473003497e25	477.79963749364674	363.46821849169623	4.289079616074101	0.9936408777989505
0.013698278920673383	5.480086633098581e-24	1.6121493258097317e9	9.033032473003497e25	477.79963749364674	363.46821849169623	4.289079616074101	0.9936408777989505
0.013750948753059931	5.584186489169987e-24	1.6121493258097317e9	9.033032473003497e25	477.79963749364674	363.46821849169623	4.289079616074101	0.9936408777989505
0.013803821100759513	5.689471926747778e-24	1.6121493258097317e9	9.033032473003497e25	477.79963749364674	363.46821849169623	4.289079616074101	0.9936408777989505
0.013856896742442708	5.7959535550877464e-24	1.6121493258097317e9	9.033032473003497e25	477.79963749364674	363.46821849169623	4.289079616074101	0.9936408777989505
0.013910176459774257	5.903642070857889e-24	1.6121493258097317e9	9.033032473003497e25	477.79963749364674	363.46821849169623	4.289079616074101	0.9936408777989505
0.013963661037424163	6.012548258832839e-24	1.6121493258097317e9	9.033032473003497e25	477.79963749364674	363.46821849169623	4.289079616074101	0.9936408777989505
0.01401735126307972	6.122682992595581e-24	1.6121493258097317e9	9.033032473003497e25	477.79963749364674	363.46821849169623	4.289079616074101	0.9936408777989505
0.0140712479274567	6.234057235242809e-24	1.6121493258097317e9	9.033032473003497e25	477.79963749364674	363.46821849169623	4.289079616074101	0.9936408777989505
0.014125351824311173	6.346682040097016e-24	1.6121493258097317e9	9.033032473003497e25	477.79963749364674	363.46821849169623	4.289079616074101	0.9936408777989505
0.014179663750451377	6.460568551424184e-24	1.6121493258097312e9	9.033032473003494e25	477.7996374936466	363.46821849169606	4.2890796160741	0.9936408777989505
0.014234184505749092	6.575728005155964e-24	1.6121493258097312e9	9.033032473003494e25	477.7996374936466	363.46821849169606	4.2890796160741	0.9936408777989505
0.014288914893151611	6.692171729618618e-24	1.6121493258097312e9	9.033032473003494e25	477.7996374936466	363.46821849169606	4.2890796160741	0.9936408777989505
0.014343855718693729	6.809911146267664e-24	1.6121493258097312e9	9.033032473003494e25	477.7996374936466	363.46821849169606	4.2890796160741	0.9936408777989505
0.014399007791509261	6.928957770427158e-24	1.6121493258097312e9	9.033032473003494e25	477.7996374936466	363.46821849169606	4.2890796160741	0.9936408777989505
0.014454371923843143	7.049323212035848e-24	1.6121493258097312e9	9.033032473003494e25	477.7996374936466	363.46821849169606	4.2890796160741	0.9936408777989505
0.014509948931063568	7.17101917639922e-24	1.6121493258097312e9	9.033032473003494e25	477.7996374936466	363.46821849169606	4.2890796160741	0.9936408777989505
0.014565739631673576	7.294057464946119e-24	1.6121493258097312e9	9.033032473003494e25	477.7996374936466	363.46821849169606	4.2890796160741	0.9936408777989505
0.01462174484732359	7.41844997599321e-24	1.6121493258097312e9	9.033032473003494e25	477.7996374936466	363.46821849169606	4.2890796160741	0.9936408777989505
0.014677965402823095	7.544208705513475e-24	1.6121493258097312e9	9.033032473003494e25	477.7996374936466	363.46821849169606	4.2890796160741	0.9936408777989505
0.014734402126152965	7.671345747912055e-24	1.6121493258097312e9	9.033032473003494e25	477.7996374936466	363.46821849169606	4.2890796160741	0.9936408777989505
0.014791055848477837	7.799873296808114e-24	1.6121493258097312e9	9.033032473003494e25	477.7996374936466	363.46821849169606	4.2890796160741	0.9936408777989505
0.014847927404157997	7.929803645821649e-24	1.6121493258097312e9	9.033032473003494e25	477.7996374936466	363.46821849169606	4.2890796160741	0.9936408777989505
0.014905017630761835	8.061149189367649e-24	1.6121493258097312e9	9.033032473003494e25	477.7996374936466	363.46821849169606	4.2890796160741	0.9936408777989505
0.014962327369078376	8.193922423456473e-24	1.6121493258097312e9	9.033032473003494e25	477.7996374936466	363.46821849169606	4.2890796160741	0.9936408777989505
0.015019857463129291	8.328135946499227e-24	1.6121493258097312e9	9.033032473003494e25	477.7996374936466	363.46821849169606	4.2890796160741	0.9936408777989505
0.015077608760181516	8.463802460120722e-24	1.6121493258097312e9	9.033032473003494e25	477.7996374936466	363.46821849169606	4.2890796160741	0.9936408777989505
0.015135582110759905	8.600934769978746e-24	1.6121493258097312e9	9.033032473003494e25	477.7996374936466	363.46821849169606	4.2890796160741	0.9936408777989505
0.015193778368659388	8.73954578658847e-24	1.6121493258097312e9	9.033032473003494e25	477.7996374936466	363.46821849169606	4.2890796160741	0.9936408777989505
0.015252198390957742	8.879648526154625e-24	1.6121493258097312e9	9.033032473003494e25	477.7996374936466	363.46821849169606	4.2890796160741	0.9936408777989505
0.015310843038028385	9.021256111410136e-24	1.6121493258097312e9	9.033032473003494e25	477.7996374936466	363.46821849169606	4.2890796160741	0.9936408777989505
0.015369713173552624	9.164381772459879e-24	1.6121493258097312e9	9.033032473003494e25	477.7996374936466	363.46821849169606	4.2890796160741	0.9936408777989505
0.015428809664532861	9.309038847633229e-24	1.6121493258097312e9	9.033032473003494e25	477.7996374936466	363.46821849169606	4.2890796160741	0.9936408777989505
0.015488133381304937	9.455240784341022e-24	1.6121493258097312e9	9.033032473003494e25	477.7996374936466	363.46821849169606	4.2890796160741	0.9936408777989505
0.015547685197551125	9.603001139940748e-24	1.6121493258097312e9	9.033032473003494e25	477.7996374936466	363.46821849169606	4.2890796160741	0.9936408777989505
0.015607465990313197	9.752333582608487e-24	1.6121493258097312e9	9.033032473003494e25	477.7996374936466	363.46821849169606	4.2890796160741	0.9936408777989505
0.01566747664000496	9.903251892216282e-24	1.6121493258097312e9	9.033032473003494e25	477.7996374936466	363.46821849169606	4.2890796160741	0.9936408777989505
0.015727718030425396	1.0055769961217731e-23	1.6121493258097312e9	9.033032473003494e25	477.7996374936466	363.46821849169606	4.2890796160741	0.9936408777989505
0.0157881910487719	1.020990179554057e-23	1.6121493258097312e9	9.033032473003494e25	477.7996374936466	363.46821849169606	4.2890796160741	0.9936408777989505
0.015848896585652934	1.0365661515484695e-23	1.6121493258097312e9	9.033032473003494e25	477.7996374936466	363.46821849169606	4.2890796160741	0.9936408777989505
0.01590983553510135	1.0523063356628747e-23	1.6121493258097312e9	9.033032473003494e25	477.7996374936466	363.46821849169606	4.2890796160741	0.9936408777989505
0.01597100879458774	1.0682121670743693e-23	1.6121493258097312e9	9.033032473003494e25	477.7996374936466	363.46821849169606	4.2890796160741	0.9936408777989505
0.016032417265033225	1.0842850926711987e-23	1.6121493258097312e9	9.033032473003494e25	477.7996374936466	363.46821849169606	4.2890796160741	0.9936408777989505
0.016094061850823203	1.1005265711456291e-23	1.6121493258097312e9	9.033032473003494e25	477.7996374936466	363.46821849169606	4.2890796160741	0.9936408777989505
