r[m]	M[Msun]	rho[g/cm^3]	P[N/m^2]	n_e[pm^-3]	n_p[pm^-3]	muF_e[MeV]	B
0.009999999999999986	-2.1112113694498368e-39	2.6154096775839964e8	7.826278897419393e24	77.6960609334801	78.62256090527693	2.1437342027835804	0.9966597563580172
0.010039375246483585	6.606964058368834e-27	2.6154096775839964e8	7.826278897419393e24	77.6960609334801	78.62256090527693	2.1437342027835804	0.9966597563580172
0.010078905533970749	1.342491989583807e-26	2.6154096775839964e8	7.826278897419393e24	77.6960609334801	78.62256090527693	2.1437342027835804	0.9966597563580172
0.01011859147293929	2.0429767875393748e-26	2.6154096775839964e8	7.826278897419393e24	77.6960609334801	78.62256090527693	2.1437342027835804	0.9966597563580172
0.010158433676270673	2.759680378947179e-26	2.6154096775839964e8	7.826278897419393e24	77.6960609334801	78.62256090527693	2.1437342027835804	0.9966597563580172
0.010198432759259716	3.490070874637365e-26	2.6154096775839964e8	7.826278897419393e24	77.6960609334801	78.62256090527693	2.1437342027835804	0.9966597563580172
0.010238589339623941	4.231553891176465e-26	2.6154096775839964e8	7.826278897419393e24	77.6960609334801	78.62256090527693	2.1437342027835804	0.9966597563580172
0.010278904037513187	4.981471510343114e-26	2.6154096775839964e8	7.826278897419393e24	77.6960609334801	78.62256090527693	2.1437342027835804	0.9966597563580172
0.010319377475519021	5.737101223727147e-26	2.6154096775839964e8	7.826278897419393e24	77.6960609334801	78.62256090527693	2.1437342027835804	0.9966597563580172
0.010360010278684606	6.495654862267426e-26	2.6154096775839964e8	7.826278897419393e24	77.6960609334801	78.62256090527693	2.1437342027835804	0.9966597563580172
0.010400803074514188	7.25427751051265e-26	2.6154096775839964e8	7.826278897419393e24	77.6960609334801	78.62256090527693	2.1437342027835804	0.9966597563580172
0.010441756492982868	8.0100464054163e-26	2.6154096775839964e8	7.826278897419393e24	77.6960609334801	78.62256090527693	2.1437342027835804	0.9966597563580172
0.01048287116654616	8.760213636979939e-26	2.6154096775839964e8	7.826278897419393e24	77.6960609334801	78.62256090527693	2.1437342027835804	0.9966597563580172
0.010524147730150016	9.523201948561593e-26	2.6154096775839964e8	7.826278897419393e24	77.6960609334801	78.62256090527693	2.1437342027835804	0.9966597563580172
0.010565586821240461	1.0309958025175955e-25	2.6154096775839964e8	7.826278897419393e24	77.6960609334801	78.62256090527693	2.1437342027835804	0.9966597563580172
0.010607189079773482	1.1117557308417976e-25	2.6154096775839964e8	7.826278897419393e24	77.6960609334801	78.62256090527693	2.1437342027835804	0.9966597563580172
0.010648955148224948	1.1943002173963421e-25	2.6154096775839964e8	7.826278897419393e24	77.6960609334801	78.62256090527693	2.1437342027835804	0.9966597563580172
0.010690885671600363	1.2783220710688024e-25	2.6154096775839964e8	7.826278897419393e24	77.6960609334801	78.62256090527693	2.1437342027835804	0.9966597563580172
0.010732981297445085	1.3635065482317878e-25	2.6154096775839964e8	7.826278897419393e24	77.6960609334801	78.62256090527693	2.1437342027835804	0.9966597563580172
0.010775242675854162	1.449531227136186e-25	2.6154096775839964e8	7.826278897419393e24	77.6960609334801	78.62256090527693	2.1437342027835804	0.9966597563580172
0.01081767045948244	1.5360658805104878e-25	2.6154096775839964e8	7.826278897419393e24	77.6960609334801	78.62256090527693	2.1437342027835804	0.9966597563580172
0.010860265303554486	1.622772346341445e-25	2.6154096775839964e8	7.826278897419393e24	77.6960609334801	78.62256090527693	2.1437342027835804	0.9966597563580172
0.01090302786587496	1.7093043968133628e-25	2.6154096775839964e8	7.826278897419393e24	77.6960609334801	78.62256090527693	2.1437342027835804	0.9966597563580172
0.010945958806838595	1.7953076053799067e-25	2.6154096775839964e8	7.826278897419393e24	77.6960609334801	78.62256090527693	2.1437342027835804	0.9966597563580172
0.0109890587894405	1.8816380986715275e-25	2.6154096775839964e8	7.826278897419393e24	77.6960609334801	78.62256090527693	2.1437342027835804	0.9966597563580172
0.011032328479286197	1.9708725664016217e-25	2.6154096775839964e8	7.826278897419393e24	77.6960609334801	78.62256090527693	2.1437342027835804	0.9966597563580172
0.011075768544602188	2.0629643152990828e-25	2.6154096775839964e8	7.826278897419393e24	77.6960609334801	78.62256090527693	2.1437342027835804	0.9966597563580172
0.011119379656246087	2.1577488291080173e-25	2.6154096775839964e8	7.826278897419393e24	77.6960609334801	78.62256090527693	2.1437342027835804	0.9966597563580172
0.011163162487717074	2.255057237950838e-25	2.6154096775839964e8	7.826278897419393e24	77.6960609334801	78.62256090527693	2.1437342027835804	0.9966597563580172
0.011207117715166106	2.3547162444436443e-25	2.6154096775839964e8	7.826278897419393e24	77.6960609334801	78.62256090527693	2.1437342027835804	0.9966597563580172
0.011251246017406643	2.4565480487478897e-25	2.6154096775839964e8	7.826278897419393e24	77.6960609334801	78.62256090527693	2.1437342027835804	0.9966597563580172
0.01129554807592494	2.5603702725420214e-25	2.6154096775839964e8	7.826278897419393e24	77.6960609334801	78.62256090527693	2.1437342027835804	0.9966597563580172
0.01134002457489063	2.6659958819004004e-25	2.6154096775839964e8	7.826278897419393e24	77.6960609334801	78.62256090527693	2.1437342027835804	0.9966597563580172
0.011384676201167315	2.773233109064347e-25	2.6154096775839964e8	7.826278897419393e24	77.6960609334801	78.62256090527693	2.1437342027835804	0.9966597563580172
0.011429503644323007	2.8818853730901438e-25	2.6154096775839964e8	7.826278897419393e24	77.6960609334801	78.62256090527693	2.1437342027835804	0.9966597563580172
0.011474507596641047	2.991751199360708e-25	2.6154096775839964e8	7.826278897419393e24	77.6960609334801	78.62256090527693	2.1437342027835804	0.9966597563580172
0.011519688753130614	3.1026241379435932e-25	2.6154096775839964e8	7.826278897419393e24	77.6960609334801	78.62256090527693	2.1437342027835804	0.9966597563580172
0.011565047811537547	3.2142926807818996e-25	2.6154096775839964e8	7.826278897419393e24	77.6960609334801	78.62256090527693	2.1437342027835804	0.9966597563580172
0.011610585472354936	3.3265401777011486e-25	2.6154096775839964e8	7.826278897419393e24	77.6960609334801	78.62256090527693	2.1437342027835804	0.9966597563580172
0.011656302438834223	3.439144751218434e-25	2.6154096775839964e8	7.826278897419393e24	77.6960609334801	78.62256090527693	2.1437342027835804	0.9966597563580172
0.011702199416995868	3.5518792101354893e-25	2.6154096775839964e8	7.826278897419393e24	77.6960609334801	78.62256090527693	2.1437342027835804	0.9966597563580172
0.01174827711564036	3.6645109619016537e-25	2.6154096775839964e8	7.826278897419393e24	77.6960609334801	78.62256090527693	2.1437342027835804	0.9966597563580172
0.011794536246358955	3.7768019237288333e-25	2.6154096775839964e8	7.826278897419393e24	77.6960609334801	78.62256090527693	2.1437342027835804	0.9966597563580172
0.011840977523544969	3.8885084324440717e-25	2.6154096775839964e8	7.826278897419393e24	77.6960609334801	78.62256090527693	2.1437342027835804	0.9966597563580172
0.011887601664404602	3.9993811530605034e-25	2.6154096775839964e8	7.826278897419393e24	77.6960609334801	78.62256090527693	2.1437342027835804	0.9966597563580172
0.011934409388968078	4.1097561324882966e-25	2.6154096775839964e8	7.826278897419393e24	77.6960609334801	78.62256090527693	2.1437342027835804	0.9966597563580172
0.011981401420100807	4.223323024504311e-25	2.6154096775839964e8	7.826278897419393e24	77.6960609334801	78.62256090527693	2.1437342027835804	0.9966597563580172
0.012028578483514348	4.340579863155616e-25	2.6154096775839964e8	7.826278897419393e24	77.6960609334801	78.62256090527693	2.1437342027835804	0.9966597563580172
0.012075941307777916	4.461295350724289e-25	2.6154096775839964e8	7.826278897419393e24	77.6960609334801	78.62256090527693	2.1437342027835804	0.9966597563580172
0.01212349062432944	4.585232120299299e-25	2.6154096775839964e8	7.826278897419393e24	77.6960609334801	78.62256090527693	2.1437342027835804	0.9966597563580172
0.012171227167486944	4.712146633004578e-25	2.6154096775839964e8	7.826278897419393e24	77.6960609334801	78.62256090527693	2.1437342027835804	0.9966597563580172
0.012219151674459711	4.84178907374665e-25	2.6154096775839964e8	7.826278897419393e24	77.6960609334801	78.62256090527693	2.1437342027835804	0.9966597563580172
0.012267264885359943	4.973903245464102e-25	2.6154096775839964e8	7.826278897419393e24	77.6960609334801	78.62256090527693	2.1437342027835804	0.9966597563580172
0.012315567543214008	5.108226461856464e-25	2.6154096775839964e8	7.826278897419393e24	77.6960609334801	78.62256090527693	2.1437342027835804	0.9966597563580172
0.012364060393974004	5.244489438574416e-25	2.6154096775839964e8	7.826278897419393e24	77.6960609334801	78.62256090527693	2.1437342027835804	0.9966597563580172
0.012412744186529087	5.382416182849136e-25	2.6154096775839964e8	7.826278897419393e24	77.6960609334801	78.62256090527693	2.1437342027835804	0.9966597563580172
0.01246161967271733	5.521723881542511e-25	2.6154096775839964e8	7.826278897419393e24	77.6960609334801	78.62256090527693	2.1437342027835804	0.9966597563580172
0.01251068760733714	5.662122787594284e-25	2.6154096775839964e8	7.826278897419393e24	77.6960609334801	78.62256090527693	2.1437342027835804	0.9966597563580172
0.012559948748158961	5.803316104847111e-25	2.6154096775839964e8	7.826278897419393e24	77.6960609334801	78.62256090527693	2.1437342027835804	0.9966597563580172
0.012609403855937024	5.944999871227241e-25	2.6154096775839964e8	7.826278897419393e24	77.6960609334801	78.62256090527693	2.1437342027835804	0.9966597563580172
0.012659053694420901	6.086862840258485e-25	2.6154096775839964e8	7.826278897419393e24	77.6960609334801	78.62256090527693	2.1437342027835804	0.9966597563580172
0.012708899030367593	6.228586360889361e-25	2.6154096775839964e8	7.826278897419393e24	77.6960609334801	78.62256090527693	2.1437342027835804	0.9966597563580172
0.012758940633553182	6.3698442556084615e-25	2.6154096775839964e8	7.826278897419393e24	77.6960609334801	78.62256090527693	2.1437342027835804	0.9966597563580172
0.01280917927678481	6.5103026968275e-25	2.6154096775839964e8	7.826278897419393e24	77.6960609334801	78.62256090527693	2.1437342027835804	0.9966597563580172
0.01285961573591241	6.649620081507563e-25	2.6154096775839964e8	7.826278897419393e24	77.6960609334801	78.62256090527693	2.1437342027835804	0.9966597563580172
0.012910250789841003	6.788714382079673e-25	2.6154096775839964e8	7.826278897419393e24	77.6960609334801	78.62256090527693	2.1437342027835804	0.9966597563580172
0.012961085220542507	6.929808222761606e-25	2.6154096775839964e8	7.826278897419393e24	77.6960609334801	78.62256090527693	2.1437342027835804	0.9966597563580172
0.013012119813067942	7.072973747547389e-25	2.6154096775839964e8	7.826278897419393e24	77.6960609334801	78.62256090527693	2.1437342027835804	0.9966597563580172
0.013063355355559308	7.218231076798342e-25	2.6154096775839964e8	7.826278897419393e24	77.6960609334801	78.62256090527693	2.1437342027835804	0.9966597563580172
0.013114792639262107	7.36560050449584e-25	2.6154096775839964e8	7.826278897419393e24	77.6960609334801	78.62256090527693	2.1437342027835804	0.9966597563580172
0.01316643245853733	7.5151024996691055e-25	2.6154096775839964e8	7.826278897419393e24	77.6960609334801	78.62256090527693	2.1437342027835804	0.9966597563580172
0.013218275610873837	7.666757707835432e-25	2.6154096775839964e8	7.826278897419393e24	77.6960609334801	78.62256090527693	2.1437342027835804	0.9966597563580172
0.013270322896900468	7.820586952451245e-25	2.6154096775839964e8	7.826278897419393e24	77.6960609334801	78.62256090527693	2.1437342027835804	0.9966597563580172
0.013322575120398706	7.976611236376104e-25	2.6154096775839964e8	7.826278897419393e24	77.6960609334801	78.62256090527693	2.1437342027835804	0.9966597563580172
0.013375033088314904	8.134851743347279e-25	2.6154096775839964e8	7.826278897419393e24	77.6960609334801	78.62256090527693	2.1437342027835804	0.9966597563580172
0.013427697610772773	8.295329839466668e-25	2.6154096775839964e8	7.826278897419393e24	77.6960609334801	78.62256090527693	2.1437342027835804	0.9966597563580172
0.013480569501085967	8.458067074699887e-25	2.6154096775839964e8	7.826278897419393e24	77.6960609334801	78.62256090527693	2.1437342027835804	0.9966597563580172
0.013533649575770421	8.6230851843865e-25	2.6154096775839964e8	7.826278897419393e24	77.6960609334801	78.62256090527693	2.1437342027835804	0.9966597563580172
0.013586938654557283	8.790406090764126e-25	2.6154096775839964e8	7.826278897419393e24	77.6960609334801	78.62256090527693	2.1437342027835804	0.9966597563580172
0.013640437560405356	8.960051904503086e-25	2.6154096775839964e8	7.826278897419393e24	77.6960609334801	78.62256090527693	2.1437342027835804	0.9966597563580172
0.01369414711951392	9.132044926254485e-25	2.6154096775839964e8	7.826278897419393e24	77.6960609334801	78.62256090527693	2.1437342027835804	0.9966597563580172
0.013748068161335272	9.306407648209555e-25	2.6154096775839964e8	7.826278897419393e24	77.6960609334801	78.62256090527693	2.1437342027835804	0.9966597563580172
0.013802201518587862	9.483162755673516e-25	2.6154096775839964e8	7.826278897419393e24	77.6960609334801	78.62256090527693	2.1437342027835804	0.9966597563580172
0.01385654802726893	9.662333128650133e-25	2.6154096775839964e8	7.826278897419393e24	77.6960609334801	78.62256090527693	2.1437342027835804	0.9966597563580172
0.013911108526667541	9.843941843440233e-25	2.6154096775839964e8	7.826278897419393e24	77.6960609334801	78.62256090527693	2.1437342027835804	0.9966597563580172
0.013965883859377304	1.0028012174251867e-24	2.6154096775839964e8	7.826278897419393e24	77.6960609334801	78.62256090527693	2.1437342027835804	0.9966597563580172
0.014020874871309732	1.0214567594825351e-24	2.6154096775839964e8	7.826278897419393e24	77.6960609334801	78.62256090527693	2.1437342027835804	0.9966597563580172
0.014076082411707085	1.04036317800695e-24	2.6154096775839964e8	7.826278897419393e24	77.6960609334801	78.62256090527693	2.1437342027835804	0.9966597563580172
0.014131507333155525	1.05952286077119e-24	2.6154096775839964e8	7.826278897419393e24	77.6960609334801	78.62256090527693	2.1437342027835804	0.9966597563580172
0.014187150491598362	1.078938215996256e-24	2.6154096775839964e8	7.826278897419393e24	77.6960609334801	78.62256090527693	2.1437342027835804	0.9966597563580172
0.01424301274634902	1.098611672518985e-24	2.6154096775839964e8	7.826278897419393e24	77.6960609334801	78.62256090527693	2.1437342027835804	0.9966597563580172
0.014299094960104673	1.1185456799611907e-24	2.6154096775839964e8	7.826278897419393e24	77.6960609334801	78.62256090527693	2.1437342027835804	0.9966597563580172
0.014355397998959322	1.1387427088999746e-24	2.6154096775839964e8	7.826278897419393e24	77.6960609334801	78.62256090527693	2.1437342027835804	0.9966597563580172
0.014411922732417298	1.1592052510395192e-24	2.6154096775839964e8	7.826278897419393e24	77.6960609334801	78.62256090527693	2.1437342027835804	0.9966597563580172
0.01446867003340645	1.1799358193841296e-24	2.6154096775839964e8	7.826278897419393e24	77.6960609334801	78.62256090527693	2.1437342027835804	0.9966597563580172
0.014525640778291972	1.2009369484128922e-24	2.6154096775839964e8	7.826278897419393e24	77.6960609334801	78.62256090527693	2.1437342027835804	0.9966597563580172
0.01458283584688972	1.2222111942555182e-24	2.6154096775839964e8	7.826278897419393e24	77.6960609334801	78.62256090527693	2.1437342027835804	0.9966597563580172
0.014640256122479892	1.243761134869719e-24	2.6154096775839964e8	7.826278897419393e24	77.6960609334801	78.62256090527693	2.1437342027835804	0.9966597563580172
0.014697902491820458	1.2655893702198989e-24	2.6154096775839964e8	7.826278897419393e24	77.6960609334801	78.62256090527693	2.1437342027835804	0.9966597563580172
0.014755775845161193	1.2876985224574755e-24	2.6154096775839964e8	7.826278897419393e24	77.6960609334801	78.62256090527693	2.1437342027835804	0.9966597563580172
0.014813877076257188	1.3100912361024479e-24	2.6154096775839964e8	7.826278897419393e24	77.6960609334801	78.62256090527693	2.1437342027835804	0.9966597563580172
0.014872207082382724	1.3327701782265292e-24	2.6154096775839964e8	7.826278897419393e24	77.6960609334801	78.62256090527693	2.1437342027835804	0.9966597563580172
0.014930766764345177	1.3557380386377493e-24	2.6154096775839964e8	7.826278897419393e24	77.6960609334801	78.62256090527693	2.1437342027835804	0.9966597563580172
0.014989557026498698	1.3789975300664218e-24	2.6154096775839964e8	7.826278897419393e24	77.6960609334801	78.62256090527693	2.1437342027835804	0.9966597563580172
0.01504857877675853	1.4025513883528398e-24	2.6154096775839964e8	7.826278897419393e24	77.6960609334801	78.62256090527693	2.1437342027835804	0.9966597563580172
0.015107832926614806	1.4264023726362554e-24	2.6154096775839964e8	7.826278897419393e24	77.6960609334801	78.62256090527693	2.1437342027835804	0.9966597563580172
0.015167320391146714	1.4505532655454965e-24	2.6154096775839964e8	7.826278897419393e24	77.6960609334801	78.62256090527693	2.1437342027835804	0.9966597563580172
0.015227042089036425	1.4750068733909905e-24	2.6154096775839964e8	7.826278897419393e24	77.6960609334801	78.62256090527693	2.1437342027835804	0.9966597563580172
0.01528699894258362	1.499766026358561e-24	2.6154096775839964e8	7.826278897419393e24	77.6960609334801	78.62256090527693	2.1437342027835804	0.9966597563580172
0.015347191877719494	1.524833578704538e-24	2.6154096775839964e8	7.826278897419393e24	77.6960609334801	78.62256090527693	2.1437342027835804	0.9966597563580172
0.015407621824021184	1.5502124089525887e-24	2.6154096775839964e8	7.826278897419393e24	77.6960609334801	78.62256090527693	2.1437342027835804	0.9966597563580172
0.015468289714725877	1.5759054200919705e-24	2.6154096775839964e8	7.826278897419393e24	77.6960609334801	78.62256090527693	2.1437342027835804	0.9966597563580172
0.015529196486745578	1.6019155397776241e-24	2.6154096775839964e8	7.826278897419393e24	77.6960609334801	78.62256090527693	2.1437342027835804	0.9966597563580172
0.015590343080681362	1.6282457205316404e-24	2.6154096775839964e8	7.826278897419393e24	77.6960609334801	78.62256090527693	2.1437342027835804	0.9966597563580172
0.015651730440837997	1.6548989399464706e-24	2.6154096775839964e8	7.826278897419393e24	77.6960609334801	78.62256090527693	2.1437342027835804	0.9966597563580172
0.015713359515238282	1.6818782008896207e-24	2.6154096775839964e8	7.826278897419393e24	77.6960609334801	78.62256090527693	2.1437342027835804	0.9966597563580172
0.01577523125563807	1.709186531710265e-24	2.6154096775839964e8	7.826278897419393e24	77.6960609334801	78.62256090527693	2.1437342027835804	0.9966597563580172
0.015837346617540722	1.7368269864472347e-24	2.6154096775839964e8	7.826278897419393e24	77.6960609334801	78.62256090527693	2.1437342027835804	0.9966597563580172
0.015899706560211908	1.7648026450388183e-24	2.6154096775839964e8	7.826278897419393e24	77.6960609334801	78.62256090527693	2.1437342027835804	0.9966597563580172
0.015962312046694495	1.7931166135342386e-24	2.6154096775839964e8	7.826278897419393e24	77.6960609334801	78.62256090527693	2.1437342027835804	0.9966597563580172
0.01602516404382317	1.8217720243066998e-24	2.6154096775839964e8	7.826278897419393e24	77.6960609334801	78.62256090527693	2.1437342027835804	0.9966597563580172
0.01608826352223973	1.8507720362684026e-24	2.6154096775839964e8	7.826278897419393e24	77.6960609334801	78.62256090527693	2.1437342027835804	0.9966597563580172
0.01615161145640786	1.880119835087036e-24	2.6154096775839964e8	7.826278897419393e24	77.6960609334801	78.62256090527693	2.1437342027835804	0.9966597563580172
0.01621520882462826	1.909818633404136e-24	2.6154096775839964e8	7.826278897419393e24	77.6960609334801	78.62256090527693	2.1437342027835804	0.9966597563580172
0.016279056609053537	1.93987167105505e-24	2.6154096775839964e8	7.826278897419393e24	77.6960609334801	78.62256090527693	2.1437342027835804	0.9966597563580172
0.01634315579570373	1.970282215290952e-24	2.6154096775839964e8	7.826278897419393e24	77.6960609334801	78.62256090527693	2.1437342027835804	0.9966597563580172
