r[m]	M[Msun]	rho[g/cm^3]	P[N/m^2]	n_e[pm^-3]	n_p[pm^-3]	muF_e[MeV]	B
0.010000000000000012	4.8275470167674614e-39	5.96826554607945e8	2.403251878742063e25	178.30294665812687	538.1107755095658	2.9629822514232127	0.9954607087833202
0.010038981905069811	1.491195053140792e-26	5.96826554607945e8	2.403251878742063e25	178.30294665812687	538.1107755095658	2.9629822514232127	0.9954607087833202
0.010078115769031896	3.0234208694711885e-26	5.96826554607945e8	2.403251878742063e25	178.30294665812687	538.1107755095658	2.9629822514232127	0.9954607087833202
0.01011740218425098	4.585552637263221e-26	5.96826554607945e8	2.403251878742063e25	178.30294665812687	538.1107755095658	2.9629822514232127	0.9954607087833202
0.010156841745400923	6.16619831107324e-26	5.96826554607945e8	2.403251878742063e25	178.30294665812687	538.1107755095658	2.9629822514232127	0.9954607087833202
0.010196435049473741	7.753694227932886e-26	5.96826554607945e8	2.403251878742063e25	178.30294665812687	538.1107755095658	2.9629822514232127	0.9954607087833202
0.010236182695788637	9.336100661636004e-26	5.96826554607945e8	2.403251878742063e25	178.30294665812687	538.1107755095658	2.9629822514232127	0.9954607087833202
0.01027608528600107	1.0933517427574693e-25	5.96826554607945e8	2.403251878742063e25	178.30294665812687	538.1107755095658	2.9629822514232127	0.9954607087833202
0.010316143424111917	1.2575302569684556e-25	5.96826554607945e8	2.403251878742063e25	178.30294665812687	538.1107755095658	2.9629822514232127	0.9954607087833202
0.010356357716476432	1.424939498656499e-25	5.96826554607945e8	2.403251878742063e25	178.30294665812687	538.1107755095658	2.9629822514232127	0.9954607087833202
0.010396728771813689	1.5943283006964502e-25	5.96826554607945e8	2.403251878742063e25	178.30294665812687	538.1107755095658	2.9629822514232127	0.9954607087833202
0.010437257201215615	1.764415672281761e-25	5.96826554607945e8	2.403251878742063e25	178.30294665812687	538.1107755095658	2.9629822514232127	0.9954607087833202
0.0104779436181563	1.9338906559121234e-25	5.96826554607945e8	2.403251878742063e25	178.30294665812687	538.1107755095658	2.9629822514232127	0.9954607087833202
0.010518788638501267	2.105595138699146e-25	5.96826554607945e8	2.403251878742063e25	178.30294665812687	538.1107755095658	2.9629822514232127	0.9954607087833202
0.0105597928805168	2.2826903223766203e-25	5.96826554607945e8	2.403251878742063e25	178.30294665812687	538.1107755095658	2.9629822514232127	0.9954607087833202
0.010600956964879305	2.4645299877589574e-25	5.96826554607945e8	2.403251878742063e25	178.30294665812687	538.1107755095658	2.9629822514232127	0.9954607087833202
0.010642281514684698	2.6504519179742993e-25	5.96826554607945e8	2.403251878742063e25	178.30294665812687	538.1107755095658	2.9629822514232127	0.9954607087833202
0.010683767155457848	2.8397776337633836e-25	5.96826554607945e8	2.403251878742063e25	178.30294665812687	538.1107755095658	2.9629822514232127	0.9954607087833202
0.010725414515162037	3.031812125026463e-25	5.96826554607945e8	2.403251878742063e25	178.30294665812687	538.1107755095658	2.9629822514232127	0.9954607087833202
0.010767224224208465	3.225843578569273e-25	5.96826554607945e8	2.403251878742063e25	178.30294665812687	538.1107755095658	2.9629822514232127	0.9954607087833202
0.010809196915465799	3.421143101997983e-25	5.96826554607945e8	2.403251878742063e25	178.30294665812687	538.1107755095658	2.9629822514232127	0.9954607087833202
0.010851333224269743	3.616964443712696e-25	5.96826554607945e8	2.403251878742063e25	178.30294665812687	538.1107755095658	2.9629822514232127	0.9954607087833202
0.010893633788432666	3.8125437089484214e-25	5.96826554607945e8	2.403251878742063e25	178.30294665812687	538.1107755095658	2.9629822514232127	0.9954607087833202
0.010936099248253292	4.0070990718118376e-25	5.96826554607945e8	2.403251878742063e25	178.30294665812687	538.1107755095658	2.9629822514232127	0.9954607087833202
0.010978730246526222	4.201220157017289e-25	5.96826554607945e8	2.403251878742063e25	178.30294665812687	538.1107755095658	2.9629822514232127	0.9954607087833202
0.011021527428551923	4.400904006880222e-25	5.96826554607945e8	2.403251878742063e25	178.30294665812687	538.1107755095658	2.9629822514232127	0.9954607087833202
0.01106449144214632	4.606288762179608e-25	5.96826554607945e8	2.403251878742063e25	178.30294665812687	538.1107755095658	2.9629822514232127	0.9954607087833202
0.011107622937650656	4.8165890281600275e-25	5.96826554607945e8	2.403251878742063e25	178.30294665812687	538.1107755095658	2.9629822514232127	0.9954607087833202
0.011150922567941316	5.0310001066258e-25	5.96826554607945e8	2.403251878742063e25	178.30294665812687	538.1107755095658	2.9629822514232127	0.9954607087833202
0.011194390988439733	5.248697677202122e-25	5.96826554607945e8	2.403251878742063e25	178.30294665812687	538.1107755095658	2.9629822514232127	0.9954607087833202
0.011238028857122289	5.468837474082424e-25	5.96826554607945e8	2.403251878742063e25	178.30294665812687	538.1107755095658	2.9629822514232127	0.9954607087833202
0.011281836834530285	5.690554958202972e-25	5.96826554607945e8	2.403251878742063e25	178.30294665812687	538.1107755095658	2.9629822514232127	0.9954607087833202
0.011325815583779947	5.912964984784613e-25	5.96826554607945e8	2.403251878742063e25	178.30294665812687	538.1107755095658	2.9629822514232127	0.9954607087833202
0.011369965770572444	6.135161466180836e-25	5.96826554607945e8	2.403251878742063e25	178.30294665812687	538.1107755095658	2.9629822514232127	0.9954607087833202
0.011414288063203975	6.3562170299709545e-25	5.96826554607945e8	2.403251878742063e25	178.30294665812687	538.1107755095658	2.9629822514232127	0.9954607087833202
0.011458783132575888	6.57614343989559e-25	5.96826554607945e8	2.403251878742063e25	178.30294665812687	538.1107755095658	2.9629822514232127	0.9954607087833202
0.011503451652204837	6.798549512521683e-25	5.96826554607945e8	2.403251878742063e25	178.30294665812687	538.1107755095658	2.9629822514232127	0.9954607087833202
0.011548294298232962	7.0239143457000325e-25	5.96826554607945e8	2.403251878742063e25	178.30294665812687	538.1107755095658	2.9629822514232127	0.9954607087833202
0.01159331174943819	7.252265813338144e-25	5.96826554607945e8	2.403251878742063e25	178.30294665812687	538.1107755095658	2.9629822514232127	0.9954607087833202
0.011638504687244308	7.483632025642463e-25	5.96826554607945e8	2.403251878742063e25	178.30294665812687	538.1107755095658	2.9629822514232127	0.9954607087833202
0.011683873795731563	7.718041331038148e-25	5.96826554607945e8	2.403251878742063e25	178.30294665812687	538.1107755095658	2.9629822514232127	0.9954607087833202
0.011729419761646835	7.95552231810154e-25	5.96826554607945e8	2.403251878742063e25	178.30294665812687	538.1107755095658	2.9629822514232127	0.9954607087833202
0.011775143274414068	8.196103817509217e-25	5.96826554607945e8	2.403251878742063e25	178.30294665812687	538.1107755095658	2.9629822514232127	0.9954607087833202
0.011821045026144717	8.439814904002555e-25	5.96826554607945e8	2.403251878742063e25	178.30294665812687	538.1107755095658	2.9629822514232127	0.9954607087833202
0.011867125711648214	8.686684898367541e-25	5.96826554607945e8	2.403251878742063e25	178.30294665812687	538.1107755095658	2.9629822514232127	0.9954607087833202
0.011913386028442498	8.93674336943072e-25	5.96826554607945e8	2.403251878742063e25	178.30294665812687	538.1107755095658	2.9629822514232127	0.9954607087833202
0.011959826676764557	9.190020136070723e-25	5.96826554607945e8	2.403251878742063e25	178.30294665812687	538.1107755095658	2.9629822514232127	0.9954607087833202
0.012006448359581045	9.446545269245979e-25	5.96826554607945e8	2.403251878742063e25	178.30294665812687	538.1107755095658	2.9629822514232127	0.9954607087833202
0.012053251782598905	9.706349094038469e-25	5.96826554607945e8	2.403251878742063e25	178.30294665812687	538.1107755095658	2.9629822514232127	0.9954607087833202
0.012100237654276072	9.969462191713815e-25	5.96826554607945e8	2.403251878742063e25	178.30294665812687	538.1107755095658	2.9629822514232127	0.9954607087833202
0.012147406685832168	1.023591540179757e-24	5.96826554607945e8	2.403251878742063e25	178.30294665812687	538.1107755095658	2.9629822514232127	0.9954607087833202
0.012194759591259303	1.0505739824168337e-24	5.96826554607945e8	2.403251878742063e25	178.30294665812687	538.1107755095658	2.9629822514232127	0.9954607087833202
0.01224229708733285	1.0778966821167189e-24	5.96826554607945e8	2.403251878742063e25	178.30294665812687	538.1107755095658	2.9629822514232127	0.9954607087833202
0.012290019893622368	1.105562801972441e-24	5.96826554607945e8	2.403251878742063e25	178.30294665812687	538.1107755095658	2.9629822514232127	0.9954607087833202
0.012337928732502279	1.1335755313501536e-24	5.96826554607945e8	2.403251878742063e25	178.30294665812687	538.1107755095658	2.9629822514232127	0.9954607087833202
0.012386024329163114	1.1619380865053413e-24	5.96826554607945e8	2.403251878742063e25	178.30294665812687	538.1107755095658	2.9629822514232127	0.9954607087833202
0.01243430741162228	1.1906537108004517e-24	5.96826554607945e8	2.403251878742063e25	178.30294665812687	538.1107755095658	2.9629822514232127	0.9954607087833202
0.012482778710735134	1.219725674924403e-24	5.96826554607945e8	2.403251878742063e25	178.30294665812687	538.1107755095658	2.9629822514232127	0.9954607087833202
0.01253143896020605	1.2491572771138053e-24	5.96826554607945e8	2.403251878742063e25	178.30294665812687	538.1107755095658	2.9629822514232127	0.9954607087833202
0.012580288896599522	1.2789518433759439e-24	5.96826554607945e8	2.403251878742063e25	178.30294665812687	538.1107755095658	2.9629822514232127	0.9954607087833202
0.012629329259351311	1.3091127277135314e-24	5.96826554607945e8	2.403251878742063e25	178.30294665812687	538.1107755095658	2.9629822514232127	0.9954607087833202
0.012678560790779636	1.3396433123512473e-24	5.96826554607945e8	2.403251878742063e25	178.30294665812687	538.1107755095658	2.9629822514232127	0.9954607087833202
0.01272798423609642	1.3705470079640774e-24	5.96826554607945e8	2.403251878742063e25	178.30294665812687	538.1107755095658	2.9629822514232127	0.9954607087833202
0.01277760034341856	1.4018272539074703e-24	5.96826554607945e8	2.403251878742063e25	178.30294665812687	538.1107755095658	2.9629822514232127	0.9954607087833202
0.012827409863779256	1.4334875184493193e-24	5.96826554607945e8	2.403251878742063e25	178.30294665812687	538.1107755095658	2.9629822514232127	0.9954607087833202
0.01287741355113938	1.4655312990037869e-24	5.96826554607945e8	2.403251878742063e25	178.30294665812687	538.1107755095658	2.9629822514232127	0.9954607087833202
0.012927612162398884	1.497962122366992e-24	5.96826554607945e8	2.403251878742063e25	178.30294665812687	538.1107755095658	2.9629822514232127	0.9954607087833202
0.012978006457408264	1.5307835449545611e-24	5.96826554607945e8	2.403251878742063e25	178.30294665812687	538.1107755095658	2.9629822514232127	0.9954607087833202
0.01302859719898011	1.5639991530411119e-24	5.96826554607945e8	2.403251878742063e25	178.30294665812687	538.1107755095658	2.9629822514232127	0.9954607087833202
0.013079385152900436	1.5976125630014527e-24	5.96826554607945e8	2.403251878742063e25	178.30294665812687	538.1107755095658	2.9629822514232127	0.9954607087833202
0.013130371087940605	1.6316274215540598e-24	5.96826554607945e8	2.403251878742063e25	178.30294665812687	538.1107755095658	2.9629822514232127	0.9954607087833202
0.013181555775868738	1.66604740600613e-24	5.96826554607945e8	2.403251878742063e25	178.30294665812687	538.1107755095658	2.9629822514232127	0.9954607087833202
0.013232939991461454	1.7008762245007464e-24	5.96826554607945e8	2.403251878742063e25	178.30294665812687	538.1107755095658	2.9629822514232127	0.9954607087833202
0.013284524512515604	1.7361176162660024e-24	5.96826554607945e8	2.403251878742063e25	178.30294665812687	538.1107755095658	2.9629822514232127	0.9954607087833202
0.013336310119860032	1.77177535186606e-24	5.96826554607945e8	2.403251878742063e25	178.30294665812687	538.1107755095658	2.9629822514232127	0.9954607087833202
0.013388297597367408	1.807853233454241e-24	5.96826554607945e8	2.403251878742063e25	178.30294665812687	538.1107755095658	2.9629822514232127	0.9954607087833202
0.013440487731966088	1.844355095028109e-24	5.96826554607945e8	2.403251878742063e25	178.30294665812687	538.1107755095658	2.9629822514232127	0.9954607087833202
0.013492881313652016	1.8812848026865693e-24	5.96826554607945e8	2.403251878742063e25	178.30294665812687	538.1107755095658	2.9629822514232127	0.9954607087833202
0.013545479135500698	1.918646254889029e-24	5.96826554607945e8	2.403251878742063e25	178.30294665812687	538.1107755095658	2.9629822514232127	0.9954607087833202
0.013598281993679202	1.956443382716601e-24	5.96826554607945e8	2.403251878742063e25	178.30294665812687	538.1107755095658	2.9629822514232127	0.9954607087833202
0.013651290687458194	1.9946801501353778e-24	5.96826554607945e8	2.403251878742063e25	178.30294665812687	538.1107755095658	2.9629822514232127	0.9954607087833202
0.013704506019224065	2.0333605542618194e-24	5.96826554607945e8	2.403251878742063e25	178.30294665812687	538.1107755095658	2.9629822514232127	0.9954607087833202
0.01375792879449111	2.0724886256302505e-24	5.96826554607945e8	2.403251878742063e25	178.30294665812687	538.1107755095658	2.9629822514232127	0.9954607087833202
0.0138115598219135	2.112068428462307e-24	5.96826554607945e8	2.403251878742063e25	178.30294665812687	538.1107755095658	2.9629822514232127	0.9954607087833202
0.013865399913297867	2.1521040609389118e-24	5.96826554607945e8	2.403251878742063e25	178.30294665812687	538.1107755095658	2.9629822514232127	0.9954607087833202
0.013919449883615364	2.1925996554740186e-24	5.96826554607945e8	2.403251878742063e25	178.30294665812687	538.1107755095658	2.9629822514232127	0.9954607087833202
0.013973710551014054	2.233559378990705e-24	5.96826554607945e8	2.403251878742063e25	178.30294665812687	538.1107755095658	2.9629822514232127	0.9954607087833202
0.0140281827368313	2.274987433199439e-24	5.96826554607945e8	2.403251878742063e25	178.30294665812687	538.1107755095658	2.9629822514232127	0.9954607087833202
0.014082867265606194	2.3168880548785488e-24	5.96826554607945e8	2.403251878742063e25	178.30294665812687	538.1107755095658	2.9629822514232127	0.9954607087833202
0.014137764965092036	2.3592655161568948e-24	5.96826554607945e8	2.403251878742063e25	178.30294665812687	538.1107755095658	2.9629822514232127	0.9954607087833202
0.01419287666626887	2.4021241247988237e-24	5.96826554607945e8	2.403251878742063e25	178.30294665812687	538.1107755095658	2.9629822514232127	0.9954607087833202
0.014248203203356053	2.4454682244913442e-24	5.96826554607945e8	2.403251878742063e25	178.30294665812687	538.1107755095658	2.9629822514232127	0.9954607087833202
0.014303745413824896	2.489302195133609e-24	5.96826554607945e8	2.403251878742063e25	178.30294665812687	538.1107755095658	2.9629822514232127	0.9954607087833202
0.014359504138411323	2.533630453128673e-24	5.96826554607945e8	2.403251878742063e25	178.30294665812687	538.1107755095658	2.9629822514232127	0.9954607087833202
0.014415480221128615	2.5784574516775775e-24	5.96826554607945e8	2.403251878742063e25	178.30294665812687	538.1107755095658	2.9629822514232127	0.9954607087833202
0.014471674509280174	2.623787681075758e-24	5.96826554607945e8	2.403251878742063e25	178.30294665812687	538.1107755095658	2.9629822514232127	0.9954607087833202
0.014528087853472352	2.669625669011815e-24	5.96826554607945e8	2.403251878742063e25	178.30294665812687	538.1107755095658	2.9629822514232127	0.9954607087833202
0.014584721107627388	2.715975980868683e-24	5.96826554607945e8	2.403251878742063e25	178.30294665812687	538.1107755095658	2.9629822514232127	0.9954607087833202
0.014641575128996089	2.7628432200269556e-24	5.96826554607945e8	2.403251878742063e25	178.30294665812687	538.1107755095658	2.9629822514232127	0.9954607087833202
0.014698650778171172	2.8102320281711174e-24	5.96826554607945e8	2.403251878742063e25	178.30294665812687	538.1107755095658	2.9629822514232127	0.9954607087833202
0.014755948919100051	2.8581470855976784e-24	5.96826554607945e8	2.403251878742063e25	178.30294665812687	538.1107755095658	2.9629822514232127	0.9954607087833202
0.014813470419097963	2.9065931115260307e-24	5.96826554607945e8	2.403251878742063e25	178.30294665812687	538.1107755095658	2.9629822514232127	0.9954607087833202
0.01487121614886112	2.9555748644117083e-24	5.96826554607945e8	2.403251878742063e25	178.30294665812687	538.1107755095658	2.9629822514232127	0.9954607087833202
0.014929186982479855	3.005097142262114e-24	5.96826554607945e8	2.403251878742063e25	178.30294665812687	538.1107755095658	2.9629822514232127	0.9954607087833202
0.014987383797451884	3.055164782954775e-24	5.96826554607945e8	2.403251878742063e25	178.30294665812687	538.1107755095658	2.9629822514232127	0.9954607087833202
0.015045807474695572	3.105782664558108e-24	5.96826554607945e8	2.403251878742063e25	178.30294665812687	538.1107755095658	2.9629822514232127	0.9954607087833202
0.015104458898563279	3.156955705654724e-24	5.96826554607945e8	2.403251878742063e25	178.30294665812687	538.1107755095658	2.9629822514232127	0.9954607087833202
0.015163338956854724	3.2086888656672923e-24	5.96826554607945e8	2.403251878742063e25	178.30294665812687	538.1107755095658	2.9629822514232127	0.9954607087833202
0.015222448540830451	3.2609871451870037e-24	5.96826554607945e8	2.403251878742063e25	178.30294665812687	538.1107755095658	2.9629822514232127	0.9954607087833202
0.015281788545225305	3.3138555863046204e-24	5.96826554607945e8	2.403251878742063e25	178.30294665812687	538.1107755095658	2.9629822514232127	0.9954607087833202
0.015341359868261977	3.3672992729441505e-24	5.96826554607945e8	2.403251878742063e25	178.30294665812687	538.1107755095658	2.9629822514232127	0.9954607087833202
0.015401163411664595	3.421323331199164e-24	5.96826554607945e8	2.403251878742063e25	178.30294665812687	538.1107755095658	2.9629822514232127	0.9954607087833202
0.015461200080672454	3.475932929671852e-24	5.96826554607945e8	2.403251878742063e25	178.30294665812687	538.1107755095658	2.9629822514232127	0.9954607087833202
0.015521470784053446	3.5311332798144506e-24	5.96826554607945e8	2.403251878742063e25	178.30294665812687	538.1107755095658	2.9629822514232127	0.9954607087833202
0.015581976434118208	3.586929636273974e-24	5.96826554607945e8	2.403251878742063e25	178.30294665812687	538.1107755095658	2.9629822514232127	0.9954607087833202
0.01564271794673367	3.64332729723908e-24	5.96826554607945e8	2.403251878742063e25	178.30294665812687	538.1107755095658	2.9629822514232127	0.9954607087833202
0.01570369624133699	3.7003316047899895e-24	5.96826554607945e8	2.403251878742063e25	178.30294665812687	538.1107755095658	2.9629822514232127	0.9954607087833202
0.015764912240949468	3.757947945251108e-24	5.96826554607945e8	2.403251878742063e25	178.30294665812687	538.1107755095658	2.9629822514232127	0.9954607087833202
0.015826366872190502	3.8161817495464295e-24	5.96826554607945e8	2.403251878742063e25	178.30294665812687	538.1107755095658	2.9629822514232127	0.9954607087833202
0.015888061065291656	3.875038493557808e-24	5.96826554607945e8	2.403251878742063e25	178.30294665812687	538.1107755095658	2.9629822514232127	0.9954607087833202
0.015949995754110692	3.9345236984859834e-24	5.96826554607945e8	2.403251878742063e25	178.30294665812687	538.1107755095658	2.9629822514232127	0.9954607087833202
0.016012171876145734	3.994642931214517e-24	5.96826554607945e8	2.403251878742063e25	178.30294665812687	538.1107755095658	2.9629822514232127	0.9954607087833202
0.016074590372549453	4.055401804676628e-24	5.96826554607945e8	2.403251878742063e25	178.30294665812687	538.1107755095658	2.9629822514232127	0.9954607087833202
0.016137252188143315	4.1168059782248774e-24	5.96826554607945e8	2.403251878742063e25	178.30294665812687	538.1107755095658	2.9629822514232127	0.9954607087833202
0.016200158271431876	4.1788611580038224e-24	5.96826554607945e8	2.403251878742063e25	178.30294665812687	538.1107755095658	2.9629822514232127	0.9954607087833202
