r[m]	M[Msun]	rho[g/cm^3]	P[N/m^2]	n_e[pm^-3]	n_p[pm^-3]	muF_e[MeV]	B
0.01000000000000001	2.0843169571001575e-39	3.004202507993776e8	9.420249965883992e24	89.0922278181561	67.78619393698688	2.2631598873351177	0.9964938082973375
0.010039303762042056	7.575138042608079e-27	3.004202507993776e8	9.420249965883992e24	89.0922278181561	67.78619393698688	2.2631598873351177	0.9964938082973375
0.010078762002655166	1.5391787668686663e-26	3.004202507993776e8	9.420249965883992e24	89.0922278181561	67.78619393698688	2.2631598873351177	0.9964938082973375
0.0101183753289982	2.342240402679191e-26	3.004202507993776e8	9.420249965883992e24	89.0922278181561	67.78619393698688	2.2631598873351177	0.9964938082973375
0.010158144350616505	3.1638752537743197e-26	3.004202507993776e8	9.420249965883992e24	89.0922278181561	67.78619393698688	2.2631598873351177	0.9964938082973375
0.010198069679451043	4.001189737745478e-26	3.004202507993776e8	9.420249965883992e24	89.0922278181561	67.78619393698688	2.2631598873351177	0.9964938082973375
0.010238151929847976	4.851218979519357e-26	3.004202507993776e8	9.420249965883992e24	89.0922278181561	67.78619393698688	2.2631598873351177	0.9964938082973375
0.010278391718568038	5.710925626495199e-26	3.004202507993776e8	9.420249965883992e24	89.0922278181561	67.78619393698688	2.2631598873351177	0.9964938082973375
0.01031878966479619	6.577198646782291e-26	3.004202507993776e8	9.420249965883992e24	89.0922278181561	67.78619393698688	2.2631598873351177	0.9964938082973375
0.010359346390150896	7.446852110301037e-26	3.004202507993776e8	9.420249965883992e24	89.0922278181561	67.78619393698688	2.2631598873351177	0.9964938082973375
0.010400062518693857	8.316623952538513e-26	3.004202507993776e8	9.420249965883992e24	89.0922278181561	67.78619393698688	2.2631598873351177	0.9964938082973375
0.010440938676939526	9.183174720714784e-26	3.004202507993776e8	9.420249965883992e24	89.0922278181561	67.78619393698688	2.2631598873351177	0.9964938082973375
0.010481975493864927	1.0043295061105487e-25	3.004202507993776e8	9.420249965883992e24	89.0922278181561	67.78619393698688	2.2631598873351177	0.9964938082973375
0.01052317360091907	1.091756873891196e-25	3.004202507993776e8	9.420249965883992e24	89.0922278181561	67.78619393698688	2.2631598873351177	0.9964938082973375
0.010564533632032833	1.1819099478290484e-25	3.004202507993776e8	9.420249965883992e24	89.0922278181561	67.78619393698688	2.2631598873351177	0.9964938082973375
0.010606056223628651	1.2744546273788706e-25	3.004202507993776e8	9.420249965883992e24	89.0922278181561	67.78619393698688	2.2631598873351177	0.9964938082973375
0.010647742014630455	1.3690484791985832e-25	3.004202507993776e8	9.420249965883992e24	89.0922278181561	67.78619393698688	2.2631598873351177	0.9964938082973375
0.010689591646473267	1.4653405981627019e-25	3.004202507993776e8	9.420249965883992e24	89.0922278181561	67.78619393698688	2.2631598873351177	0.9964938082973375
0.010731605763113227	1.5629714663905639e-25	3.004202507993776e8	9.420249965883992e24	89.0922278181561	67.78619393698688	2.2631598873351177	0.9964938082973375
0.010773785011037429	1.661572810261676e-25	3.004202507993776e8	9.420249965883992e24	89.0922278181561	67.78619393698688	2.2631598873351177	0.9964938082973375
0.010816130039274023	1.7607674553926177e-25	3.004202507993776e8	9.420249965883992e24	89.0922278181561	67.78619393698688	2.2631598873351177	0.9964938082973375
0.010858641499401968	1.860169179547082e-25	3.004202507993776e8	9.420249965883992e24	89.0922278181561	67.78619393698688	2.2631598873351177	0.9964938082973375
0.010901320045561205	1.9593825634535664e-25	3.004202507993776e8	9.420249965883992e24	89.0922278181561	67.78619393698688	2.2631598873351177	0.9964938082973375
0.01094416633446265	2.0580028395016887e-25	3.004202507993776e8	9.420249965883992e24	89.0922278181561	67.78619393698688	2.2631598873351177	0.9964938082973375
0.010987181025398477	2.1568983863828335e-25	3.004202507993776e8	9.420249965883992e24	89.0922278181561	67.78619393698688	2.2631598873351177	0.9964938082973375
0.011030364780251992	2.259086225697959e-25	3.004202507993776e8	9.420249965883992e24	89.0922278181561	67.78619393698688	2.2631598873351177	0.9964938082973375
0.01107371826350799	2.364549937684217e-25	3.004202507993776e8	9.420249965883992e24	89.0922278181561	67.78619393698688	2.2631598873351177	0.9964938082973375
0.011117242142262899	2.4731016741473855e-25	3.004202507993776e8	9.420249965883992e24	89.0922278181561	67.78619393698688	2.2631598873351177	0.9964938082973375
0.011160937086235228	2.5845486235891323e-25	3.004202507993776e8	9.420249965883992e24	89.0922278181561	67.78619393698688	2.2631598873351177	0.9964938082973375
0.01120480376777559	2.6986929271227732e-25	3.004202507993776e8	9.420249965883992e24	89.0922278181561	67.78619393698688	2.2631598873351177	0.9964938082973375
0.011248842861877236	2.8153315931805653e-25	3.004202507993776e8	9.420249965883992e24	89.0922278181561	67.78619393698688	2.2631598873351177	0.9964938082973375
0.011293055046186348	2.934256410994648e-25	3.004202507993776e8	9.420249965883992e24	89.0922278181561	67.78619393698688	2.2631598873351177	0.9964938082973375
0.01133744100101265	3.05525386283678e-25	3.004202507993776e8	9.420249965883992e24	89.0922278181561	67.78619393698688	2.2631598873351177	0.9964938082973375
0.011382001409339601	3.1781050349984573e-25	3.004202507993776e8	9.420249965883992e24	89.0922278181561	67.78619393698688	2.2631598873351177	0.9964938082973375
0.011426736956835092	3.302585527497161e-25	3.004202507993776e8	9.420249965883992e24	89.0922278181561	67.78619393698688	2.2631598873351177	0.9964938082973375
0.011471648331861893	3.428465362489869e-25	3.004202507993776e8	9.420249965883992e24	89.0922278181561	67.78619393698688	2.2631598873351177	0.9964938082973375
0.011516736225488445	3.5555088913782767e-25	3.004202507993776e8	9.420249965883992e24	89.0922278181561	67.78619393698688	2.2631598873351177	0.9964938082973375
0.011562001331499205	3.683474700586242e-25	3.004202507993776e8	9.420249965883992e24	89.0922278181561	67.78619393698688	2.2631598873351177	0.9964938082973375
0.01160744434640551	3.812115515994621e-25	3.004202507993776e8	9.420249965883992e24	89.0922278181561	67.78619393698688	2.2631598873351177	0.9964938082973375
0.011653065969456202	3.9411781060135685e-25	3.004202507993776e8	9.420249965883992e24	89.0922278181561	67.78619393698688	2.2631598873351177	0.9964938082973375
0.011698866902648578	4.0704031832758694e-25	3.004202507993776e8	9.420249965883992e24	89.0922278181561	67.78619393698688	2.2631598873351177	0.9964938082973375
0.011744847850738904	4.1995253049309845e-25	3.004202507993776e8	9.420249965883992e24	89.0922278181561	67.78619393698688	2.2631598873351177	0.9964938082973375
0.01179100952125345	4.328272771524076e-25	3.004202507993776e8	9.420249965883992e24	89.0922278181561	67.78619393698688	2.2631598873351177	0.9964938082973375
0.011837352624499285	4.456367524439075e-25	3.004202507993776e8	9.420249965883992e24	89.0922278181561	67.78619393698688	2.2631598873351177	0.9964938082973375
0.011883877873575392	4.58352504188854e-25	3.004202507993776e8	9.420249965883992e24	89.0922278181561	67.78619393698688	2.2631598873351177	0.9964938082973375
0.011930585984383365	4.709968793579565e-25	3.004202507993776e8	9.420249965883992e24	89.0922278181561	67.78619393698688	2.2631598873351177	0.9964938082973375
0.011977477675638601	4.839878562152471e-25	3.004202507993776e8	9.420249965883992e24	89.0922278181561	67.78619393698688	2.2631598873351177	0.9964938082973375
0.012024553668881272	4.974026703424216e-25	3.004202507993776e8	9.420249965883992e24	89.0922278181561	67.78619393698688	2.2631598873351177	0.9964938082973375
0.012071814688487623	5.112149354426428e-25	3.004202507993776e8	9.420249965883992e24	89.0922278181561	67.78619393698688	2.2631598873351177	0.9964938082973375
0.012119261461680821	5.253975737427587e-25	3.004202507993776e8	9.420249965883992e24	89.0922278181561	67.78619393698688	2.2631598873351177	0.9964938082973375
0.012166894718542343	5.399228043039263e-25	3.004202507993776e8	9.420249965883992e24	89.0922278181561	67.78619393698688	2.2631598873351177	0.9964938082973375
0.012214715192023114	5.547621311641411e-25	3.004202507993776e8	9.420249965883992e24	89.0922278181561	67.78619393698688	2.2631598873351177	0.9964938082973375
0.012262723617954973	5.698863313106163e-25	3.004202507993776e8	9.420249965883992e24	89.0922278181561	67.78619393698688	2.2631598873351177	0.9964938082973375
0.012310920735061723	5.852654424795213e-25	3.004202507993776e8	9.420249965883992e24	89.0922278181561	67.78619393698688	2.2631598873351177	0.9964938082973375
0.012359307284970655	6.008687507810679e-25	3.004202507993776e8	9.420249965883992e24	89.0922278181561	67.78619393698688	2.2631598873351177	0.9964938082973375
0.012407884012223905	6.166647781474292e-25	3.004202507993776e8	9.420249965883992e24	89.0922278181561	67.78619393698688	2.2631598873351177	0.9964938082973375
0.012456651664290077	6.326212696012889e-25	3.004202507993776e8	9.420249965883992e24	89.0922278181561	67.78619393698688	2.2631598873351177	0.9964938082973375
0.012505610991575468	6.487051803424157e-25	3.004202507993776e8	9.420249965883992e24	89.0922278181561	67.78619393698688	2.2631598873351177	0.9964938082973375
0.012554762747435794	6.648826626501654e-25	3.004202507993776e8	9.420249965883992e24	89.0922278181561	67.78619393698688	2.2631598873351177	0.9964938082973375
0.012604107688187696	6.8111905259923125e-25	3.004202507993776e8	9.420249965883992e24	89.0922278181561	67.78619393698688	2.2631598873351177	0.9964938082973375
0.01265364657312058	6.973788565863565e-25	3.004202507993776e8	9.420249965883992e24	89.0922278181561	67.78619393698688	2.2631598873351177	0.9964938082973375
0.012703380164507987	7.136257376652512e-25	3.004202507993776e8	9.420249965883992e24	89.0922278181561	67.78619393698688	2.2631598873351177	0.9964938082973375
0.012753309227619532	7.298225016875215e-25	3.004202507993776e8	9.420249965883992e24	89.0922278181561	67.78619393698688	2.2631598873351177	0.9964938082973375
0.012803434530732577	7.459310832467752e-25	3.004202507993776e8	9.420249965883992e24	89.0922278181561	67.78619393698688	2.2631598873351177	0.9964938082973375
0.012853756845144258	7.619125314235143e-25	3.004202507993776e8	9.420249965883992e24	89.0922278181561	67.78619393698688	2.2631598873351177	0.9964938082973375
0.012904276945183042	7.778423678458497e-25	3.004202507993776e8	9.420249965883992e24	89.0922278181561	67.78619393698688	2.2631598873351177	0.9964938082973375
0.012954995608220854	7.939930324980795e-25	3.004202507993776e8	9.420249965883992e24	89.0922278181561	67.78619393698688	2.2631598873351177	0.9964938082973375
0.013005913614684927	8.103804943125583e-25	3.004202507993776e8	9.420249965883992e24	89.0922278181561	67.78619393698688	2.2631598873351177	0.9964938082973375
0.013057031748070023	8.270070490862054e-25	3.004202507993776e8	9.420249965883992e24	89.0922278181561	67.78619393698688	2.2631598873351177	0.9964938082973375
0.01310835079495018	8.438750123909917e-25	3.004202507993776e8	9.420249965883992e24	89.0922278181561	67.78619393698688	2.2631598873351177	0.9964938082973375
0.013159871544991016	8.609867197364197e-25	3.004202507993776e8	9.420249965883992e24	89.0922278181561	67.78619393698688	2.2631598873351177	0.9964938082973375
0.013211594790961836	8.783445267332188e-25	3.004202507993776e8	9.420249965883992e24	89.0922278181561	67.78619393698688	2.2631598873351177	0.9964938082973375
0.01326352132874777	8.959508092583495e-25	3.004202507993776e8	9.420249965883992e24	89.0922278181561	67.78619393698688	2.2631598873351177	0.9964938082973375
0.01331565195736224	9.138079636214363e-25	3.004202507993776e8	9.420249965883992e24	89.0922278181561	67.78619393698688	2.2631598873351177	0.9964938082973375
0.013367987478958924	9.319184067323463e-25	3.004202507993776e8	9.420249965883992e24	89.0922278181561	67.78619393698688	2.2631598873351177	0.9964938082973375
0.013420528698844327	9.502845762702983e-25	3.004202507993776e8	9.420249965883992e24	89.0922278181561	67.78619393698688	2.2631598873351177	0.9964938082973375
0.013473276425490052	9.689089308542214e-25	3.004202507993776e8	9.420249965883992e24	89.0922278181561	67.78619393698688	2.2631598873351177	0.9964938082973375
0.013526231470545469	9.877939502146015e-25	3.004202507993776e8	9.420249965883992e24	89.0922278181561	67.78619393698688	2.2631598873351177	0.9964938082973375
0.013579394648849863	1.0069421353665027e-24	3.004202507993776e8	9.420249965883992e24	89.0922278181561	67.78619393698688	2.2631598873351177	0.9964938082973375
0.013632766778445203	1.0263560087841876e-24	3.004202507993776e8	9.420249965883992e24	89.0922278181561	67.78619393698688	2.2631598873351177	0.9964938082973375
0.013686348680588618	1.0460381145770044e-24	3.004202507993776e8	9.420249965883992e24	89.0922278181561	67.78619393698688	2.2631598873351177	0.9964938082973375
0.013740141179765249	1.0659910186668275e-24	3.004202507993776e8	9.420249965883992e24	89.0922278181561	67.78619393698688	2.2631598873351177	0.9964938082973375
0.013794145103700608	1.0862173089667081e-24	3.004202507993776e8	9.420249965883992e24	89.0922278181561	67.78619393698688	2.2631598873351177	0.9964938082973375
0.013848361283373536	1.1067195955611574e-24	3.004202507993776e8	9.420249965883992e24	89.0922278181561	67.78619393698688	2.2631598873351177	0.9964938082973375
0.013902790553028876	1.1275005108877712e-24	3.004202507993776e8	9.420249965883992e24	89.0922278181561	67.78619393698688	2.2631598873351177	0.9964938082973375
0.01395743375019054	1.148562709920424e-24	3.004202507993776e8	9.420249965883992e24	89.0922278181561	67.78619393698688	2.2631598873351177	0.9964938082973375
0.01401229171567405	1.1699088703537254e-24	3.004202507993776e8	9.420249965883992e24	89.0922278181561	67.78619393698688	2.2631598873351177	0.9964938082973375
0.014067365293599705	1.1915416927891732e-24	3.004202507993776e8	9.420249965883992e24	89.0922278181561	67.78619393698688	2.2631598873351177	0.9964938082973375
0.014122655331405465	1.2134639009226728e-24	3.004202507993776e8	9.420249965883992e24	89.0922278181561	67.78619393698688	2.2631598873351177	0.9964938082973375
0.014178162679860202	1.2356782417336857e-24	3.004202507993776e8	9.420249965883992e24	89.0922278181561	67.78619393698688	2.2631598873351177	0.9964938082973375
0.014233888193076465	1.258187485675683e-24	3.004202507993776e8	9.420249965883992e24	89.0922278181561	67.78619393698688	2.2631598873351177	0.9964938082973375
0.014289832728523837	1.2809944268683413e-24	3.004202507993776e8	9.420249965883992e24	89.0922278181561	67.78619393698688	2.2631598873351177	0.9964938082973375
0.014345997147042032	1.304101883291158e-24	3.004202507993776e8	9.420249965883992e24	89.0922278181561	67.78619393698688	2.2631598873351177	0.9964938082973375
0.01440238231285435	1.3275126969787414e-24	3.004202507993776e8	9.420249965883992e24	89.0922278181561	67.78619393698688	2.2631598873351177	0.9964938082973375
0.01445898909358065	1.3512297342174563e-24	3.004202507993776e8	9.420249965883992e24	89.0922278181561	67.78619393698688	2.2631598873351177	0.9964938082973375
0.01451581836025091	1.3752558857438532e-24	3.004202507993776e8	9.420249965883992e24	89.0922278181561	67.78619393698688	2.2631598873351177	0.9964938082973375
0.014572870987318538	1.3995940669445818e-24	3.004202507993776e8	9.420249965883992e24	89.0922278181561	67.78619393698688	2.2631598873351177	0.9964938082973375
0.014630147852674035	1.424247218058019e-24	3.004202507993776e8	9.420249965883992e24	89.0922278181561	67.78619393698688	2.2631598873351177	0.9964938082973375
0.014687649837658176	1.4492183043772976e-24	3.004202507993776e8	9.420249965883992e24	89.0922278181561	67.78619393698688	2.2631598873351177	0.9964938082973375
0.014745377827075795	1.4745103164551858e-24	3.004202507993776e8	9.420249965883992e24	89.0922278181561	67.78619393698688	2.2631598873351177	0.9964938082973375
0.014803332709209279	1.5001262703104811e-24	3.004202507993776e8	9.420249965883992e24	89.0922278181561	67.78619393698688	2.2631598873351177	0.9964938082973375
0.014861515375832477	1.5260692076361975e-24	3.004202507993776e8	9.420249965883992e24	89.0922278181561	67.78619393698688	2.2631598873351177	0.9964938082973375
0.014919926722224067	1.5523421960091725e-24	3.004202507993776e8	9.420249965883992e24	89.0922278181561	67.78619393698688	2.2631598873351177	0.9964938082973375
0.014978567647181572	1.5789483291016096e-24	3.004202507993776e8	9.420249965883992e24	89.0922278181561	67.78619393698688	2.2631598873351177	0.9964938082973375
0.015037439053035059	1.6058907268941546e-24	3.004202507993776e8	9.420249965883992e24	89.0922278181561	67.78619393698688	2.2631598873351177	0.9964938082973375
0.015096541845661284	1.633172535890864e-24	3.004202507993776e8	9.420249965883992e24	89.0922278181561	67.78619393698688	2.2631598873351177	0.9964938082973375
0.015155876934497246	1.660796929335589e-24	3.004202507993776e8	9.420249965883992e24	89.0922278181561	67.78619393698688	2.2631598873351177	0.9964938082973375
0.015215445232554446	1.688767107430403e-24	3.004202507993776e8	9.420249965883992e24	89.0922278181561	67.78619393698688	2.2631598873351177	0.9964938082973375
0.015275247656432792	1.717086297555581e-24	3.004202507993776e8	9.420249965883992e24	89.0922278181561	67.78619393698688	2.2631598873351177	0.9964938082973375
0.015335285126334966	1.7457577544915482e-24	3.004202507993776e8	9.420249965883992e24	89.0922278181561	67.78619393698688	2.2631598873351177	0.9964938082973375
0.015395558566080202	1.774784760642281e-24	3.004202507993776e8	9.420249965883992e24	89.0922278181561	67.78619393698688	2.2631598873351177	0.9964938082973375
0.01545606890311876	1.8041706262608217e-24	3.004202507993776e8	9.420249965883992e24	89.0922278181561	67.78619393698688	2.2631598873351177	0.9964938082973375
0.01551681706854606	1.8339186896764002e-24	3.004202507993776e8	9.420249965883992e24	89.0922278181561	67.78619393698688	2.2631598873351177	0.9964938082973375
0.015577803997117267	1.864032317523571e-24	3.004202507993776e8	9.420249965883992e24	89.0922278181561	67.78619393698688	2.2631598873351177	0.9964938082973375
0.015639030627261297	1.894514904972875e-24	3.004202507993776e8	9.420249965883992e24	89.0922278181561	67.78619393698688	2.2631598873351177	0.9964938082973375
0.01570049790109551	1.9253698759636525e-24	3.004202507993776e8	9.420249965883992e24	89.0922278181561	67.78619393698688	2.2631598873351177	0.9964938082973375
0.015762206764440075	1.9566006834385408e-24	3.004202507993776e8	9.420249965883992e24	89.0922278181561	67.78619393698688	2.2631598873351177	0.9964938082973375
0.01582415816683278	1.988210809580044e-24	3.004202507993776e8	9.420249965883992e24	89.0922278181561	67.78619393698688	2.2631598873351177	0.9964938082973375
0.01588635306154327	2.0202037660486634e-24	3.004202507993776e8	9.420249965883992e24	89.0922278181561	67.78619393698688	2.2631598873351177	0.9964938082973375
0.01594879240558795	2.0525830942232694e-24	3.004202507993776e8	9.420249965883992e24	89.0922278181561	67.78619393698688	2.2631598873351177	0.9964938082973375
0.016011477159744603	2.0853523654432013e-24	3.004202507993776e8	9.420249965883992e24	89.0922278181561	67.78619393698688	2.2631598873351177	0.9964938082973375
0.016074408288567425	2.1185151812525014e-24	3.004202507993776e8	9.420249965883992e24	89.0922278181561	67.78619393698688	2.2631598873351177	0.9964938082973375
0.01613758676040148	2.1520751736457714e-24	3.004202507993776e8	9.420249965883992e24	89.0922278181561	67.78619393698688	2.2631598873351177	0.9964938082973375
0.016201013547397846	2.1860360053163282e-24	3.004202507993776e8	9.420249965883992e24	89.0922278181561	67.78619393698688	2.2631598873351177	0.9964938082973375
0.016264689625528465	2.2204013699061586e-24	3.004202507993776e8	9.420249965883992e24	89.0922278181561	67.78619393698688	2.2631598873351177	0.9964938082973375
0.016328615974601415	2.2551749922580718e-24	3.004202507993776e8	9.420249965883992e24	89.0922278181561	67.78619393698688	2.2631598873351177	0.9964938082973375
