r[m]	M[Msun]	rho[g/cm^3]	P[N/m^2]	n_e[pm^-3]	n_p[pm^-3]	muF_e[MeV]	B
0.009999999999999985	-4.464472450046789e-39	4.8218790362726e8	1.8038732520432176e25	144.11107830007404	434.78900368874173	2.730315487471265	0.9957929264576512
0.01003908897560545	1.2081184845747345e-26	4.8218790362726e8	1.8038732520432176e25	144.11107830007404	434.78900368874173	2.730315487471265	0.9957929264576512
0.01007833074601226	2.4495462877243382e-26	4.8218790362726e8	1.8038732520432176e25	144.11107830007404	434.78900368874173	2.730315487471265	0.9957929264576512
0.01011772590847973	3.7152227270460573e-26	4.8218790362726e8	1.8038732520432176e25	144.11107830007404	434.78900368874173	2.730315487471265	0.9957929264576512
0.01015727506260162	4.995868873275239e-26	4.8218790362726e8	1.8038732520432176e25	144.11107830007404	434.78900368874173	2.730315487471265	0.9957929264576512
0.010196978810315624	6.28198396023943e-26	4.8218790362726e8	1.8038732520432176e25	144.11107830007404	434.78900368874173	2.730315487471265	0.9957929264576512
0.010236837755912168	7.563841743956032e-26	4.8218790362726e8	1.8038732520432176e25	144.11107830007404	434.78900368874173	2.730315487471265	0.9957929264576512
0.010276852506043963	8.858600978210817e-26	4.8218790362726e8	1.8038732520432176e25	144.11107830007404	434.78900368874173	2.730315487471265	0.9957929264576512
0.010317023669734892	1.0189284322821988e-25	4.8218790362726e8	1.8038732520432176e25	144.11107830007404	434.78900368874173	2.730315487471265	0.9957929264576512
0.010357351858389619	1.15460120786937e-25	4.8218790362726e8	1.8038732520432176e25	144.11107830007404	434.78900368874173	2.730315487471265	0.9957929264576512
0.010397837685802557	1.291858952283141e-25	4.8218790362726e8	1.8038732520432176e25	144.11107830007404	434.78900368874173	2.730315487471265	0.9957929264576512
0.010438481768167548	1.4296578289795804e-25	4.8218790362726e8	1.8038732520432176e25	144.11107830007404	434.78900368874173	2.730315487471265	0.9957929264576512
0.010479284724086905	1.5669342308671864e-25	4.8218790362726e8	1.8038732520432176e25	144.11107830007404	434.78900368874173	2.730315487471265	0.9957929264576512
0.010520247174581158	1.7061875689751634e-25	4.8218790362726e8	1.8038732520432176e25	144.11107830007404	434.78900368874173	2.730315487471265	0.9957929264576512
0.010561369743098181	1.8498033519149697e-25	4.8218790362726e8	1.8038732520432176e25	144.11107830007404	434.78900368874173	2.730315487471265	0.9957929264576512
0.010602653055523008	1.9972548532156433e-25	4.8218790362726e8	1.8038732520432176e25	144.11107830007404	434.78900368874173	2.730315487471265	0.9957929264576512
0.01064409774018702	2.1480022742501845e-25	4.8218790362726e8	1.8038732520432176e25	144.11107830007404	434.78900368874173	2.730315487471265	0.9957929264576512
0.010685704427877854	2.3014925273621496e-25	4.8218790362726e8	1.8038732520432176e25	144.11107830007404	434.78900368874173	2.730315487471265	0.9957929264576512
0.010727473751848663	2.4571590159074453e-25	4.8218790362726e8	1.8038732520432176e25	144.11107830007404	434.78900368874173	2.730315487471265	0.9957929264576512
0.01076940634782809	2.614421411175721e-25	4.8218790362726e8	1.8038732520432176e25	144.11107830007404	434.78900368874173	2.730315487471265	0.9957929264576512
0.010811502854029605	2.772685426145256e-25	4.8218790362726e8	1.8038732520432176e25	144.11107830007404	434.78900368874173	2.730315487471265	0.9957929264576512
0.01085376391116156	2.9313425860348876e-25	4.8218790362726e8	1.8038732520432176e25	144.11107830007404	434.78900368874173	2.730315487471265	0.9957929264576512
0.010896190162436604	3.08976999560562e-25	4.8218790362726e8	1.8038732520432176e25	144.11107830007404	434.78900368874173	2.730315487471265	0.9957929264576512
0.010938782253581802	3.2473301031744317e-25	4.8218790362726e8	1.8038732520432176e25	144.11107830007404	434.78900368874173	2.730315487471265	0.9957929264576512
0.010981540832848132	3.404751925261501e-25	4.8218790362726e8	1.8038732520432176e25	144.11107830007404	434.78900368874173	2.730315487471265	0.9957929264576512
0.011024466551020694	3.566836191009145e-25	4.8218790362726e8	1.8038732520432176e25	144.11107830007404	434.78900368874173	2.730315487471265	0.9957929264576512
0.011067560061428259	3.733512360032026e-25	4.8218790362726e8	1.8038732520432176e25	144.11107830007404	434.78900368874173	2.730315487471265	0.9957929264576512
0.011110822019953576	3.904139769228253e-25	4.8218790362726e8	1.8038732520432176e25	144.11107830007404	434.78900368874173	2.730315487471265	0.9957929264576512
0.011154253085042995	4.0780619736548466e-25	4.8218790362726e8	1.8038732520432176e25	144.11107830007404	434.78900368874173	2.730315487471265	0.9957929264576512
0.011197853917716837	4.254606485258592e-25	4.8218790362726e8	1.8038732520432176e25	144.11107830007404	434.78900368874173	2.730315487471265	0.9957929264576512
0.011241625181579108	4.433084507894233e-25	4.8218790362726e8	1.8038732520432176e25	144.11107830007404	434.78900368874173	2.730315487471265	0.9957929264576512
0.01128556754282796	4.612790668587046e-25	4.8218790362726e8	1.8038732520432176e25	144.11107830007404	434.78900368874173	2.730315487471265	0.9957929264576512
0.011329681670265455	4.793002744984267e-25	4.8218790362726e8	1.8038732520432176e25	144.11107830007404	434.78900368874173	2.730315487471265	0.9957929264576512
0.011373968235308125	4.9729813889515835e-25	4.8218790362726e8	1.8038732520432176e25	144.11107830007404	434.78900368874173	2.730315487471265	0.9957929264576512
0.011418427911996806	5.151969846257781e-25	4.8218790362726e8	1.8038732520432176e25	144.11107830007404	434.78900368874173	2.730315487471265	0.9957929264576512
0.011463061377007288	5.330226526078307e-25	4.8218790362726e8	1.8038732520432176e25	144.11107830007404	434.78900368874173	2.730315487471265	0.9957929264576512
0.011507869309660218	5.510635497860133e-25	4.8218790362726e8	1.8038732520432176e25	144.11107830007404	434.78900368874173	2.730315487471265	0.9957929264576512
0.011552852391931838	5.693450366132247e-25	4.8218790362726e8	1.8038732520432176e25	144.11107830007404	434.78900368874173	2.730315487471265	0.9957929264576512
0.011598011308464011	5.878693856978318e-25	4.8218790362726e8	1.8038732520432176e25	144.11107830007404	434.78900368874173	2.730315487471265	0.9957929264576512
0.01164334674657481	6.066388889665769e-25	4.8218790362726e8	1.8038732520432176e25	144.11107830007404	434.78900368874173	2.730315487471265	0.9957929264576512
0.011688859396269092	6.256558578218701e-25	4.8218790362726e8	1.8038732520432176e25	144.11107830007404	434.78900368874173	2.730315487471265	0.9957929264576512
0.01173454995024869	6.449226233001709e-25	4.8218790362726e8	1.8038732520432176e25	144.11107830007404	434.78900368874173	2.730315487471265	0.9957929264576512
0.011780419103923329	6.644415362319107e-25	4.8218790362726e8	1.8038732520432176e25	144.11107830007404	434.78900368874173	2.730315487471265	0.9957929264576512
0.01182646755542082	6.842149674023814e-25	4.8218790362726e8	1.8038732520432176e25	144.11107830007404	434.78900368874173	2.730315487471265	0.9957929264576512
0.011872696005598087	7.042453077142273e-25	4.8218790362726e8	1.8038732520432176e25	144.11107830007404	434.78900368874173	2.730315487471265	0.9957929264576512
0.01191910515805143	7.245349683509099e-25	4.8218790362726e8	1.8038732520432176e25	144.11107830007404	434.78900368874173	2.730315487471265	0.9957929264576512
0.011965695719127634	7.450863809418023e-25	4.8218790362726e8	1.8038732520432176e25	144.11107830007404	434.78900368874173	2.730315487471265	0.9957929264576512
0.012012468397934324	7.659019977282675e-25	4.8218790362726e8	1.8038732520432176e25	144.11107830007404	434.78900368874173	2.730315487471265	0.9957929264576512
0.012059423906351152	7.869842917314071e-25	4.8218790362726e8	1.8038732520432176e25	144.11107830007404	434.78900368874173	2.730315487471265	0.9957929264576512
0.012106562959040232	8.08335756920791e-25	4.8218790362726e8	1.8038732520432176e25	144.11107830007404	434.78900368874173	2.730315487471265	0.9957929264576512
0.012153886273457428	8.29958908384897e-25	4.8218790362726e8	1.8038732520432176e25	144.11107830007404	434.78900368874173	2.730315487471265	0.9957929264576512
0.012201394569862854	8.5185628250254e-25	4.8218790362726e8	1.8038732520432176e25	144.11107830007404	434.78900368874173	2.730315487471265	0.9957929264576512
0.012249088571332256	8.740304371160426e-25	4.8218790362726e8	1.8038732520432176e25	144.11107830007404	434.78900368874173	2.730315487471265	0.9957929264576512
0.012296969003767602	8.964839517054065e-25	4.8218790362726e8	1.8038732520432176e25	144.11107830007404	434.78900368874173	2.730315487471265	0.9957929264576512
0.012345036595908547	9.192194275642597e-25	4.8218790362726e8	1.8038732520432176e25	144.11107830007404	434.78900368874173	2.730315487471265	0.9957929264576512
0.012393292079343098	9.422394879768108e-25	4.8218790362726e8	1.8038732520432176e25	144.11107830007404	434.78900368874173	2.730315487471265	0.9957929264576512
0.012441736188519185	9.655467783966174e-25	4.8218790362726e8	1.8038732520432176e25	144.11107830007404	434.78900368874173	2.730315487471265	0.9957929264576512
0.012490369660755398	9.891439666263714e-25	4.8218790362726e8	1.8038732520432176e25	144.11107830007404	434.78900368874173	2.730315487471265	0.9957929264576512
0.012539193236252648	1.0130337429995254e-24	4.8218790362726e8	1.8038732520432176e25	144.11107830007404	434.78900368874173	2.730315487471265	0.9957929264576512
0.012588207658105003	1.0372188205629628e-24	4.8218790362726e8	1.8038732520432176e25	144.11107830007404	434.78900368874173	2.730315487471265	0.9957929264576512
0.012637413672311422	1.0617019352615242e-24	4.8218790362726e8	1.8038732520432176e25	144.11107830007404	434.78900368874173	2.730315487471265	0.9957929264576512
0.012686812027786685	1.0864858461236005e-24	4.8218790362726e8	1.8038732520432176e25	144.11107830007404	434.78900368874173	2.730315487471265	0.9957929264576512
0.012736403476373214	1.1115733354486184e-24	4.8218790362726e8	1.8038732520432176e25	144.11107830007404	434.78900368874173	2.730315487471265	0.9957929264576512
0.01278618877285209	1.1369672089955917e-24	4.8218790362726e8	1.8038732520432176e25	144.11107830007404	434.78900368874173	2.730315487471265	0.9957929264576512
0.01283616867495498	1.16267029617362e-24	4.8218790362726e8	1.8038732520432176e25	144.11107830007404	434.78900368874173	2.730315487471265	0.9957929264576512
0.012886343943375221	1.1886854502334494e-24	4.8218790362726e8	1.8038732520432176e25	144.11107830007404	434.78900368874173	2.730315487471265	0.9957929264576512
0.012936715341779844	1.2150155484610138e-24	4.8218790362726e8	1.8038732520432176e25	144.11107830007404	434.78900368874173	2.730315487471265	0.9957929264576512
0.012987283636820756	1.241663492372067e-24	4.8218790362726e8	1.8038732520432176e25	144.11107830007404	434.78900368874173	2.730315487471265	0.9957929264576512
0.01303804959814685	1.2686322079088198e-24	4.8218790362726e8	1.8038732520432176e25	144.11107830007404	434.78900368874173	2.730315487471265	0.9957929264576512
0.013089013998415276	1.2959246456376815e-24	4.8218790362726e8	1.8038732520432176e25	144.11107830007404	434.78900368874173	2.730315487471265	0.9957929264576512
0.013140177613303642	1.3235437809490384e-24	4.8218790362726e8	1.8038732520432176e25	144.11107830007404	434.78900368874173	2.730315487471265	0.9957929264576512
0.013191541221521375	1.351492614258164e-24	4.8218790362726e8	1.8038732520432176e25	144.11107830007404	434.78900368874173	2.730315487471265	0.9957929264576512
0.013243105604822029	1.3797741712081955e-24	4.8218790362726e8	1.8038732520432176e25	144.11107830007404	434.78900368874173	2.730315487471265	0.9957929264576512
0.013294871548014722	1.40839150287424e-24	4.8218790362726e8	1.8038732520432176e25	144.11107830007404	434.78900368874173	2.730315487471265	0.9957929264576512
0.013346839838976535	1.437347685969613e-24	4.8218790362726e8	1.8038732520432176e25	144.11107830007404	434.78900368874173	2.730315487471265	0.9957929264576512
0.01339901126866406	1.4666458230532037e-24	4.8218790362726e8	1.8038732520432176e25	144.11107830007404	434.78900368874173	2.730315487471265	0.9957929264576512
0.013451386631125875	1.4962890427390004e-24	4.8218790362726e8	1.8038732520432176e25	144.11107830007404	434.78900368874173	2.730315487471265	0.9957929264576512
0.01350396672351425	1.5262804999068148e-24	4.8218790362726e8	1.8038732520432176e25	144.11107830007404	434.78900368874173	2.730315487471265	0.9957929264576512
0.01355675234609744	1.5566233759149937e-24	4.8218790362726e8	1.8038732520432176e25	144.11107830007404	434.78900368874173	2.730315487471265	0.9957929264576512
0.013609744302272032	1.587320878814825e-24	4.8218790362726e8	1.8038732520432176e25	144.11107830007404	434.78900368874173	2.730315487471265	0.9957929264576512
0.01366294339857479	1.6183762435663365e-24	4.8218790362726e8	1.8038732520432176e25	144.11107830007404	434.78900368874173	2.730315487471265	0.9957929264576512
0.013716350444695363	1.6497927322562846e-24	4.8218790362726e8	1.8038732520432176e25	144.11107830007404	434.78900368874173	2.730315487471265	0.9957929264576512
0.013769966253488176	1.681573634317365e-24	4.8218790362726e8	1.8038732520432176e25	144.11107830007404	434.78900368874173	2.730315487471265	0.9957929264576512
0.013823791640985243	1.713722266749698e-24	4.8218790362726e8	1.8038732520432176e25	144.11107830007404	434.78900368874173	2.730315487471265	0.9957929264576512
0.013877827426408137	1.7462419743435305e-24	4.8218790362726e8	1.8038732520432176e25	144.11107830007404	434.78900368874173	2.730315487471265	0.9957929264576512
0.013932074432180908	1.7791361299042568e-24	4.8218790362726e8	1.8038732520432176e25	144.11107830007404	434.78900368874173	2.730315487471265	0.9957929264576512
0.013986533483942153	1.8124081344786888e-24	4.8218790362726e8	1.8038732520432176e25	144.11107830007404	434.78900368874173	2.730315487471265	0.9957929264576512
0.014041205410558038	1.8460614175836753e-24	4.8218790362726e8	1.8038732520432176e25	144.11107830007404	434.78900368874173	2.730315487471265	0.9957929264576512
0.01409609104413444	1.8800994374359623e-24	4.8218790362726e8	1.8038732520432176e25	144.11107830007404	434.78900368874173	2.730315487471265	0.9957929264576512
0.014151191220030099	1.914525681184487e-24	4.8218790362726e8	1.8038732520432176e25	144.11107830007404	434.78900368874173	2.730315487471265	0.9957929264576512
0.014206506776868844	1.9493436651439115e-24	4.8218790362726e8	1.8038732520432176e25	144.11107830007404	434.78900368874173	2.730315487471265	0.9957929264576512
0.014262038556552833	1.9845569350306025e-24	4.8218790362726e8	1.8038732520432176e25	144.11107830007404	434.78900368874173	2.730315487471265	0.9957929264576512
0.014317787404274902	2.0201690661999154e-24	4.8218790362726e8	1.8038732520432176e25	144.11107830007404	434.78900368874173	2.730315487471265	0.9957929264576512
0.014373754168531894	2.0561836638859424e-24	4.8218790362726e8	1.8038732520432176e25	144.11107830007404	434.78900368874173	2.730315487471265	0.9957929264576512
0.014429939701137104	2.0926043634425745e-24	4.8218790362726e8	1.8038732520432176e25	144.11107830007404	434.78900368874173	2.730315487471265	0.9957929264576512
0.014486344857233711	2.1294348305870816e-24	4.8218790362726e8	1.8038732520432176e25	144.11107830007404	434.78900368874173	2.730315487471265	0.9957929264576512
0.014542970495307327	2.1666787616450247e-24	4.8218790362726e8	1.8038732520432176e25	144.11107830007404	434.78900368874173	2.730315487471265	0.9957929264576512
0.014599817477199534	2.204339883797729e-24	4.8218790362726e8	1.8038732520432176e25	144.11107830007404	434.78900368874173	2.730315487471265	0.9957929264576512
0.014656886668120522	2.2424219553310955e-24	4.8218790362726e8	1.8038732520432176e25	144.11107830007404	434.78900368874173	2.730315487471265	0.9957929264576512
0.014714178936662745	2.2809287658870353e-24	4.8218790362726e8	1.8038732520432176e25	144.11107830007404	434.78900368874173	2.730315487471265	0.9957929264576512
0.014771695154813651	2.3198641367162467e-24	4.8218790362726e8	1.8038732520432176e25	144.11107830007404	434.78900368874173	2.730315487471265	0.9957929264576512
0.014829436197969436	2.3592319209336602e-24	4.8218790362726e8	1.8038732520432176e25	144.11107830007404	434.78900368874173	2.730315487471265	0.9957929264576512
0.014887402944947897	2.3990360037752595e-24	4.8218790362726e8	1.8038732520432176e25	144.11107830007404	434.78900368874173	2.730315487471265	0.9957929264576512
0.014945596278002278	2.4392803028575974e-24	4.8218790362726e8	1.8038732520432176e25	144.11107830007404	434.78900368874173	2.730315487471265	0.9957929264576512
0.01500401708283421	2.479968768438708e-24	4.8218790362726e8	1.8038732520432176e25	144.11107830007404	434.78900368874173	2.730315487471265	0.9957929264576512
0.0150626662486077	2.5211053836817784e-24	4.8218790362726e8	1.8038732520432176e25	144.11107830007404	434.78900368874173	2.730315487471265	0.9957929264576512
0.015121544667962145	2.562694164920217e-24	4.8218790362726e8	1.8038732520432176e25	144.11107830007404	434.78900368874173	2.730315487471265	0.9957929264576512
0.015180653237026435	2.6047391619255276e-24	4.8218790362726e8	1.8038732520432176e25	144.11107830007404	434.78900368874173	2.730315487471265	0.9957929264576512
0.015239992855432087	2.6472444581766125e-24	4.8218790362726e8	1.8038732520432176e25	144.11107830007404	434.78900368874173	2.730315487471265	0.9957929264576512
0.015299564426327432	2.690214171131924e-24	4.8218790362726e8	1.8038732520432176e25	144.11107830007404	434.78900368874173	2.730315487471265	0.9957929264576512
0.015359368856390863	2.733652452503055e-24	4.8218790362726e8	1.8038732520432176e25	144.11107830007404	434.78900368874173	2.730315487471265	0.9957929264576512
0.015419407055845144	2.7775634885312367e-24	4.8218790362726e8	1.8038732520432176e25	144.11107830007404	434.78900368874173	2.730315487471265	0.9957929264576512
0.015479679938470745	2.8219515002652887e-24	4.8218790362726e8	1.8038732520432176e25	144.11107830007404	434.78900368874173	2.730315487471265	0.9957929264576512
0.015540188421620272	2.866820743842532e-24	4.8218790362726e8	1.8038732520432176e25	144.11107830007404	434.78900368874173	2.730315487471265	0.9957929264576512
0.015600933426231976	2.912175510771227e-24	4.8218790362726e8	1.8038732520432176e25	144.11107830007404	434.78900368874173	2.730315487471265	0.9957929264576512
0.01566191587684396	2.9580201282157146e-24	4.8218790362726e8	1.8038732520432176e25	144.11107830007404	434.78900368874173	2.730315487471265	0.9957929264576512
0.015723136701608437	3.004358959283826e-24	4.8218790362726e8	1.8038732520432176e25	144.11107830007404	434.78900368874173	2.730315487471265	0.9957929264576512
0.015784596832305427	3.051196403316126e-24	4.8218790362726e8	1.8038732520432176e25	144.11107830007404	434.78900368874173	2.730315487471265	0.9957929264576512
0.015846297204357436	3.0985368961781297e-24	4.8218790362726e8	1.8038732520432176e25	144.11107830007404	434.78900368874173	2.730315487471265	0.9957929264576512
0.01590823875684318	3.1463849105540922e-24	4.8218790362726e8	1.8038732520432176e25	144.11107830007404	434.78900368874173	2.730315487471265	0.9957929264576512
0.015970422432512392	3.1947449562439e-24	4.8218790362726e8	1.8038732520432176e25	144.11107830007404	434.78900368874173	2.730315487471265	0.9957929264576512
0.016032849177799673	3.2436215804615552e-24	4.8218790362726e8	1.8038732520432176e25	144.11107830007404	434.78900368874173	2.730315487471265	0.9957929264576512
0.016095519942839382	3.2930193681367853e-24	4.8218790362726e8	1.8038732520432176e25	144.11107830007404	434.78900368874173	2.730315487471265	0.9957929264576512
0.016158435681479608	3.342942942218281e-24	4.8218790362726e8	1.8038732520432176e25	144.11107830007404	434.78900368874173	2.730315487471265	0.9957929264576512
0.01622159735129719	3.3933989757621134e-24	4.8218790362726e8	1.8038732520432176e25	144.11107830007404	434.78900368874173	2.730315487471265	0.9957929264576512
