r[m]	M[Msun]	rho[g/cm^3]	P[N/m^2]	n_e[pm^-3]	n_p[pm^-3]	muF_e[MeV]	B
0.00999999999999999	-5.4595657069849286e-39	9.496592643007827e8	4.452182914710922e25	282.0078979087307	285.32304843197346	3.525023601252271	0.9946972559707868
0.010038731061155964	2.3572942965694174e-26	9.496592643007827e8	4.452182914710922e25	282.0078979087307	285.32304843197346	3.525023601252271	0.9946972559707868
0.010077612131821767	4.7791435298770586e-26	9.496592643007827e8	4.452182914710922e25	282.0078979087307	285.32304843197346	3.525023601252271	0.9946972559707868
0.010116643793000184	7.248181324165921e-26	9.496592643007827e8	4.452182914710922e25	282.0078979087307	285.32304843197346	3.525023601252271	0.9946972559707868
0.010155826627944176	9.746626815173033e-26	9.496592643007827e8	4.452182914710922e25	282.0078979087307	285.32304843197346	3.525023601252271	0.9946972559707868
0.010195161222165813	1.2256277894509785e-25	9.496592643007827e8	4.452182914710922e25	282.0078979087307	285.32304843197346	3.525023601252271	0.9946972559707868
0.010234648163444887	1.475850435924116e-25	9.496592643007827e8	4.452182914710922e25	282.0078979087307	285.32304843197346	3.525023601252271	0.9946972559707868
0.010274288041837755	1.7281100291087675e-25	9.496592643007827e8	4.452182914710922e25	282.0078979087307	285.32304843197346	3.525023601252271	0.9946972559707868
0.010314081449686006	1.9873830221610792e-25	9.496592643007827e8	4.452182914710922e25	282.0078979087307	285.32304843197346	3.525023601252271	0.9946972559707868
0.010354028981625555	2.2518239804342395e-25	9.496592643007827e8	4.452182914710922e25	282.0078979087307	285.32304843197346	3.525023601252271	0.9946972559707868
0.010394131234595363	2.5194818047458906e-25	9.496592643007827e8	4.452182914710922e25	282.0078979087307	285.32304843197346	3.525023601252271	0.9946972559707868
0.010434388807846397	2.7883591720724168e-25	9.496592643007827e8	4.452182914710922e25	282.0078979087307	285.32304843197346	3.525023601252271	0.9946972559707868
0.010474802302950632	3.0564117838339904e-25	9.496592643007827e8	4.452182914710922e25	282.0078979087307	285.32304843197346	3.525023601252271	0.9946972559707868
0.010515372323809865	3.327197222533115e-25	9.496592643007827e8	4.452182914710922e25	282.0078979087307	285.32304843197346	3.525023601252271	0.9946972559707868
0.010556099476664997	3.6065031782885166e-25	9.496592643007827e8	4.452182914710922e25	282.0078979087307	285.32304843197346	3.525023601252271	0.9946972559707868
0.010596984370104923	3.893347671426169e-25	9.496592643007827e8	4.452182914710922e25	282.0078979087307	285.32304843197346	3.525023601252271	0.9946972559707868
0.010638027615075667	4.186698994466883e-25	9.496592643007827e8	4.452182914710922e25	282.0078979087307	285.32304843197346	3.525023601252271	0.9946972559707868
0.010679229824889554	4.4855002507820115e-25	9.496592643007827e8	4.452182914710922e25	282.0078979087307	285.32304843197346	3.525023601252271	0.9946972559707868
0.010720591615234205	4.788668941384156e-25	9.496592643007827e8	4.452182914710922e25	282.0078979087307	285.32304843197346	3.525023601252271	0.9946972559707868
0.010762113604181993	5.095096545907673e-25	9.496592643007827e8	4.452182914710922e25	282.0078979087307	285.32304843197346	3.525023601252271	0.9946972559707868
0.010803796412199104	5.403648097696772e-25	9.496592643007827e8	4.452182914710922e25	282.0078979087307	285.32304843197346	3.525023601252271	0.9946972559707868
0.010845640662154906	5.713161752929641e-25	9.496592643007827e8	4.452182914710922e25	282.0078979087307	285.32304843197346	3.525023601252271	0.9946972559707868
0.010887646979331072	6.022448353696958e-25	9.496592643007827e8	4.452182914710922e25	282.0078979087307	285.32304843197346	3.525023601252271	0.9946972559707868
0.010929815991431184	6.330290984961342e-25	9.496592643007827e8	4.452182914710922e25	282.0078979087307	285.32304843197346	3.525023601252271	0.9946972559707868
0.010972148328589951	6.636649985344432e-25	9.496592643007827e8	4.452182914710922e25	282.0078979087307	285.32304843197346	3.525023601252271	0.9946972559707868
0.011014644623382657	6.950872015571196e-25	9.496592643007827e8	4.452182914710922e25	282.0078979087307	285.32304843197346	3.525023601252271	0.9946972559707868
0.011057305510834657	7.274231067126864e-25	9.496592643007827e8	4.452182914710922e25	282.0078979087307	285.32304843197346	3.525023601252271	0.9946972559707868
0.0111001316284307	7.605505590144612e-25	9.496592643007827e8	4.452182914710922e25	282.0078979087307	285.32304843197346	3.525023601252271	0.9946972559707868
0.011143123616124712	7.943444169794848e-25	9.496592643007827e8	4.452182914710922e25	282.0078979087307	285.32304843197346	3.525023601252271	0.9946972559707868
0.011186282116349183	8.286765036165617e-25	9.496592643007827e8	4.452182914710922e25	282.0078979087307	285.32304843197346	3.525023601252271	0.9946972559707868
0.01122960777402486	8.634155567248283e-25	9.496592643007827e8	4.452182914710922e25	282.0078979087307	285.32304843197346	3.525023601252271	0.9946972559707868
0.011273101236570196	8.984271784934177e-25	9.496592643007827e8	4.452182914710922e25	282.0078979087307	285.32304843197346	3.525023601252271	0.9946972559707868
0.011316763153911306	9.335737843937366e-25	9.496592643007827e8	4.452182914710922e25	282.0078979087307	285.32304843197346	3.525023601252271	0.9946972559707868
0.011360594178491487	9.687145513543652e-25	9.496592643007827e8	4.452182914710922e25	282.0078979087307	285.32304843197346	3.525023601252271	0.9946972559707868
0.011404594965281024	1.0037053652098319e-24	9.496592643007827e8	4.452182914710922e25	282.0078979087307	285.32304843197346	3.525023601252271	0.9946972559707868
0.011448766171787014	1.038460519756603e-24	9.496592643007827e8	4.452182914710922e25	282.0078979087307	285.32304843197346	3.525023601252271	0.9946972559707868
0.011493108458063006	1.0735167746292295e-24	9.496592643007827e8	4.452182914710922e25	282.0078979087307	285.32304843197346	3.525023601252271	0.9946972559707868
0.011537622486719155	1.1090367513578926e-24	9.496592643007827e8	4.452182914710922e25	282.0078979087307	285.32304843197346	3.525023601252271	0.9946972559707868
0.011582308922931921	1.145024791239628e-24	9.496592643007827e8	4.452182914710922e25	282.0078979087307	285.32304843197346	3.525023601252271	0.9946972559707868
0.011627168434454068	1.1814852721400312e-24	9.496592643007827e8	4.452182914710922e25	282.0078979087307	285.32304843197346	3.525023601252271	0.9946972559707868
0.011672201691624683	1.2184226087882427e-24	9.496592643007827e8	4.452182914710922e25	282.0078979087307	285.32304843197346	3.525023601252271	0.9946972559707868
0.011717409367379002	1.2558412530740718e-24	9.496592643007827e8	4.452182914710922e25	282.0078979087307	285.32304843197346	3.525023601252271	0.9946972559707868
0.011762792137258756	1.2937456943478768e-24	9.496592643007827e8	4.452182914710922e25	282.0078979087307	285.32304843197346	3.525023601252271	0.9946972559707868
0.011808350679422075	1.332140459722396e-24	9.496592643007827e8	4.452182914710922e25	282.0078979087307	285.32304843197346	3.525023601252271	0.9946972559707868
0.011854085674653712	1.3710301143772285e-24	9.496592643007827e8	4.452182914710922e25	282.0078979087307	285.32304843197346	3.525023601252271	0.9946972559707868
0.01189999780637503	1.4104192618654643e-24	9.496592643007827e8	4.452182914710922e25	282.0078979087307	285.32304843197346	3.525023601252271	0.9946972559707868
0.011946087760654497	1.4503125444231461e-24	9.496592643007827e8	4.452182914710922e25	282.0078979087307	285.32304843197346	3.525023601252271	0.9946972559707868
0.011992356226217752	1.4907146432807825e-24	9.496592643007827e8	4.452182914710922e25	282.0078979087307	285.32304843197346	3.525023601252271	0.9946972559707868
0.01203880389445794	1.5316302789775085e-24	9.496592643007827e8	4.452182914710922e25	282.0078979087307	285.32304843197346	3.525023601252271	0.9946972559707868
0.012085431459446093	1.5730642116777382e-24	9.496592643007827e8	4.452182914710922e25	282.0078979087307	285.32304843197346	3.525023601252271	0.9946972559707868
0.012132239617941307	1.6150212414901157e-24	9.496592643007827e8	4.452182914710922e25	282.0078979087307	285.32304843197346	3.525023601252271	0.9946972559707868
0.01217922906940145	1.6575062087894048e-24	9.496592643007827e8	4.452182914710922e25	282.0078979087307	285.32304843197346	3.525023601252271	0.9946972559707868
0.01222640051599341	1.70052399454048e-24	9.496592643007827e8	4.452182914710922e25	282.0078979087307	285.32304843197346	3.525023601252271	0.9946972559707868
0.012273754662603699	1.74407952062518e-24	9.496592643007827e8	4.452182914710922e25	282.0078979087307	285.32304843197346	3.525023601252271	0.9946972559707868
0.012321292216848771	1.7881777501714105e-24	9.496592643007827e8	4.452182914710922e25	282.0078979087307	285.32304843197346	3.525023601252271	0.9946972559707868
0.012369013889085912	1.8328236878853646e-24	9.496592643007827e8	4.452182914710922e25	282.0078979087307	285.32304843197346	3.525023601252271	0.9946972559707868
0.01241692039242364	1.878022380385866e-24	9.496592643007827e8	4.452182914710922e25	282.0078979087307	285.32304843197346	3.525023601252271	0.9946972559707868
0.012465012442732425	1.9237789165416105e-24	9.496592643007827e8	4.452182914710922e25	282.0078979087307	285.32304843197346	3.525023601252271	0.9946972559707868
0.01251329075865542	1.9700984278110494e-24	9.496592643007827e8	4.452182914710922e25	282.0078979087307	285.32304843197346	3.525023601252271	0.9946972559707868
0.012561756061619017	2.016986088584738e-24	9.496592643007827e8	4.452182914710922e25	282.0078979087307	285.32304843197346	3.525023601252271	0.9946972559707868
0.01261040907584392	2.0644471165308523e-24	9.496592643007827e8	4.452182914710922e25	282.0078979087307	285.32304843197346	3.525023601252271	0.9946972559707868
0.012659250528355755	2.112486772942961e-24	9.496592643007827e8	4.452182914710922e25	282.0078979087307	285.32304843197346	3.525023601252271	0.9946972559707868
0.01270828114899601	2.161110363090787e-24	9.496592643007827e8	4.452182914710922e25	282.0078979087307	285.32304843197346	3.525023601252271	0.9946972559707868
0.012757501670432972	2.2103232365737373e-24	9.496592643007827e8	4.452182914710922e25	282.0078979087307	285.32304843197346	3.525023601252271	0.9946972559707868
0.01280691282817247	2.2601307876769516e-24	9.496592643007827e8	4.452182914710922e25	282.0078979087307	285.32304843197346	3.525023601252271	0.9946972559707868
0.012856515360569188	2.31053845573071e-24	9.496592643007827e8	4.452182914710922e25	282.0078979087307	285.32304843197346	3.525023601252271	0.9946972559707868
0.012906310008837482	2.3615517254721346e-24	9.496592643007827e8	4.452182914710922e25	282.0078979087307	285.32304843197346	3.525023601252271	0.9946972559707868
0.01295629751706256	2.413176127410065e-24	9.496592643007827e8	4.452182914710922e25	282.0078979087307	285.32304843197346	3.525023601252271	0.9946972559707868
0.013006478632211396	2.4654172381924992e-24	9.496592643007827e8	4.452182914710922e25	282.0078979087307	285.32304843197346	3.525023601252271	0.9946972559707868
0.0130568541041442	2.518280680977459e-24	9.496592643007827e8	4.452182914710922e25	282.0078979087307	285.32304843197346	3.525023601252271	0.9946972559707868
0.013107424685625424	2.5717721258062698e-24	9.496592643007827e8	4.452182914710922e25	282.0078979087307	285.32304843197346	3.525023601252271	0.9946972559707868
0.013158191132335054	2.6258972899800215e-24	9.496592643007827e8	4.452182914710922e25	282.0078979087307	285.32304843197346	3.525023601252271	0.9946972559707868
0.013209154202879955	2.680661938439019e-24	9.496592643007827e8	4.452182914710922e25	282.0078979087307	285.32304843197346	3.525023601252271	0.9946972559707868
0.013260314658804999	2.7360718841449524e-24	9.496592643007827e8	4.452182914710922e25	282.0078979087307	285.32304843197346	3.525023601252271	0.9946972559707868
0.013311673264604763	2.7921329884666414e-24	9.496592643007827e8	4.452182914710922e25	282.0078979087307	285.32304843197346	3.525023601252271	0.9946972559707868
0.013363230787734739	2.8488511615682383e-24	9.496592643007827e8	4.452182914710922e25	282.0078979087307	285.32304843197346	3.525023601252271	0.9946972559707868
0.013414987998622912	2.9062323628008723e-24	9.496592643007827e8	4.452182914710922e25	282.0078979087307	285.32304843197346	3.525023601252271	0.9946972559707868
0.013466945670681043	2.9642826010969872e-24	9.496592643007827e8	4.452182914710922e25	282.0078979087307	285.32304843197346	3.525023601252271	0.9946972559707868
0.013519104580316578	3.0230079353684297e-24	9.496592643007827e8	4.452182914710922e25	282.0078979087307	285.32304843197346	3.525023601252271	0.9946972559707868
0.013571465506944004	3.0824144749070338e-24	9.496592643007827e8	4.452182914710922e25	282.0078979087307	285.32304843197346	3.525023601252271	0.9946972559707868
0.013624029232996568	3.1425083797887073e-24	9.496592643007827e8	4.452182914710922e25	282.0078979087307	285.32304843197346	3.525023601252271	0.9946972559707868
0.013676796543938023	3.203295861280684e-24	9.496592643007827e8	4.452182914710922e25	282.0078979087307	285.32304843197346	3.525023601252271	0.9946972559707868
0.01372976822827413	3.2647831822516538e-24	9.496592643007827e8	4.452182914710922e25	282.0078979087307	285.32304843197346	3.525023601252271	0.9946972559707868
0.013782945077564794	3.326976657585811e-24	9.496592643007827e8	4.452182914710922e25	282.0078979087307	285.32304843197346	3.525023601252271	0.9946972559707868
0.013836327886435655	3.389882654599487e-24	9.496592643007827e8	4.452182914710922e25	282.0078979087307	285.32304843197346	3.525023601252271	0.9946972559707868
0.01388991745259002	3.453507593461392e-24	9.496592643007827e8	4.452182914710922e25	282.0078979087307	285.32304843197346	3.525023601252271	0.9946972559707868
0.013943714576820847	3.5178579476162094e-24	9.496592643007827e8	4.452182914710922e25	282.0078979087307	285.32304843197346	3.525023601252271	0.9946972559707868
0.01399772006302248	3.582940244211139e-24	9.496592643007827e8	4.452182914710922e25	282.0078979087307	285.32304843197346	3.525023601252271	0.9946972559707868
0.014051934718202992	3.6487610645265096e-24	9.496592643007827e8	4.452182914710922e25	282.0078979087307	285.32304843197346	3.525023601252271	0.9946972559707868
0.01410635935249604	3.715327044409114e-24	9.496592643007823e8	4.452182914710921e25	282.00789790873057	285.3230484319734	3.5250236012522707	0.9946972559707868
0.014160994779173066	3.782644874709354e-24	9.496592643007823e8	4.452182914710921e25	282.00789790873057	285.3230484319734	3.5250236012522707	0.9946972559707868
0.014215841814655225	3.850721301721401e-24	9.496592643007823e8	4.452182914710921e25	282.00789790873057	285.3230484319734	3.5250236012522707	0.9946972559707868
0.014270901278525932	3.919563127627564e-24	9.496592643007823e8	4.452182914710921e25	282.00789790873057	285.3230484319734	3.5250236012522707	0.9946972559707868
0.014326173993542878	3.989177210945414e-24	9.496592643007823e8	4.452182914710921e25	282.00789790873057	285.3230484319734	3.5250236012522707	0.9946972559707868
0.014381660785650384	4.059570466978824e-24	9.496592643007823e8	4.452182914710921e25	282.00789790873057	285.3230484319734	3.5250236012522707	0.9946972559707868
0.014437362483991793	4.130749868272524e-24	9.496592643007823e8	4.452182914710921e25	282.00789790873057	285.3230484319734	3.5250236012522707	0.9946972559707868
0.01449327992092164	4.202722445069907e-24	9.496592643007823e8	4.452182914710921e25	282.00789790873057	285.3230484319734	3.5250236012522707	0.9946972559707868
0.014549413932018427	4.275495285775148e-24	9.496592643007823e8	4.452182914710921e25	282.00789790873057	285.3230484319734	3.5250236012522707	0.9946972559707868
0.014605765356096886	4.34907553741826e-24	9.496592643007823e8	4.452182914710921e25	282.00789790873057	285.3230484319734	3.5250236012522707	0.9946972559707868
0.014662335035220625	4.423470406124219e-24	9.496592643007823e8	4.452182914710921e25	282.00789790873057	285.3230484319734	3.5250236012522707	0.9946972559707868
0.014719123814714477	4.4986871575853565e-24	9.496592643007823e8	4.452182914710921e25	282.00789790873057	285.3230484319734	3.5250236012522707	0.9946972559707868
0.014776132543177485	4.57473311753823e-24	9.496592643007823e8	4.452182914710921e25	282.00789790873057	285.3230484319734	3.5250236012522707	0.9946972559707868
0.014833362072495344	4.651615672243478e-24	9.496592643007823e8	4.452182914710921e25	282.00789790873057	285.3230484319734	3.5250236012522707	0.9946972559707868
0.014890813257853196	4.72934226896984e-24	9.496592643007823e8	4.452182914710921e25	282.00789790873057	285.3230484319734	3.5250236012522707	0.9946972559707868
0.01494848695774847	4.807920416482019e-24	9.496592643007823e8	4.452182914710921e25	282.00789790873057	285.3230484319734	3.5250236012522707	0.9946972559707868
0.015006384034003454	4.88735768553191e-24	9.496592643007823e8	4.452182914710921e25	282.00789790873057	285.3230484319734	3.5250236012522707	0.9946972559707868
0.015064505351778558	4.967661709354594e-24	9.496592643007823e8	4.452182914710921e25	282.00789790873057	285.3230484319734	3.5250236012522707	0.9946972559707868
0.015122851779584981	5.048840184167359e-24	9.496592643007823e8	4.452182914710921e25	282.00789790873057	285.3230484319734	3.5250236012522707	0.9946972559707868
0.015181424189297767	5.1309008696731034e-24	9.496592643007823e8	4.452182914710921e25	282.00789790873057	285.3230484319734	3.5250236012522707	0.9946972559707868
0.015240223456168878	5.213851589567668e-24	9.496592643007823e8	4.452182914710921e25	282.00789790873057	285.3230484319734	3.5250236012522707	0.9946972559707868
0.015299250458840037	5.2977002320507554e-24	9.496592643007823e8	4.452182914710921e25	282.00789790873057	285.3230484319734	3.5250236012522707	0.9946972559707868
0.015358506079356229	5.382454750341724e-24	9.496592643007823e8	4.452182914710921e25	282.00789790873057	285.3230484319734	3.5250236012522707	0.9946972559707868
0.015417991203178624	5.468123163198589e-24	9.496592643007823e8	4.452182914710921e25	282.00789790873057	285.3230484319734	3.5250236012522707	0.9946972559707868
0.015477706719197947	5.554713555441613e-24	9.496592643007823e8	4.452182914710921e25	282.00789790873057	285.3230484319734	3.5250236012522707	0.9946972559707868
0.015537653519747495	5.6422340784804945e-24	9.496592643007823e8	4.452182914710921e25	282.00789790873057	285.3230484319734	3.5250236012522707	0.9946972559707868
0.015597832500616863	5.7306929508466116e-24	9.496592643007823e8	4.452182914710921e25	282.00789790873057	285.3230484319734	3.5250236012522707	0.9946972559707868
0.015658244561065068	5.820098458728531e-24	9.496592643007823e8	4.452182914710921e25	282.00789790873057	285.3230484319734	3.5250236012522707	0.9946972559707868
0.015718890603834048	5.910458956512197e-24	9.496592643007823e8	4.452182914710921e25	282.00789790873057	285.3230484319734	3.5250236012522707	0.9946972559707868
0.01577977153516223	6.0017828673253834e-24	9.496592643007823e8	4.452182914710921e25	282.00789790873057	285.3230484319734	3.5250236012522707	0.9946972559707868
0.0158408882647978	6.094078683585944e-24	9.496592643007823e8	4.452182914710921e25	282.00789790873057	285.3230484319734	3.5250236012522707	0.9946972559707868
0.015902241706012683	6.187354967555295e-24	9.496592643007823e8	4.452182914710921e25	282.00789790873057	285.3230484319734	3.5250236012522707	0.9946972559707868
0.01596383277561595	6.281620351895387e-24	9.496592643007823e8	4.452182914710921e25	282.00789790873057	285.3230484319734	3.5250236012522707	0.9946972559707868
0.01602566239396763	6.3768835402305454e-24	9.496592643007823e8	4.452182914710921e25	282.00789790873057	285.3230484319734	3.5250236012522707	0.9946972559707868
0.016087731484992207	6.4731533077131835e-24	9.496592643007823e8	4.452182914710921e25	282.00789790873057	285.3230484319734	3.5250236012522707	0.9946972559707868
0.01615004097619282	6.570438501594937e-24	9.496592643007823e8	4.452182914710921e25	282.00789790873057	285.3230484319734	3.5250236012522707	0.9946972559707868
