r[m]	M[Msun]	rho[g/cm^3]	P[N/m^2]	n_e[pm^-3]	n_p[pm^-3]	muF_e[MeV]	B
0.01000000000000001	4.41068362534743e-39	6.364054426451381e8	2.599568702518485e25	189.0102288762755	191.24459074391285	3.029696179520916	0.9953950279183145
0.010038935957779351	1.5881857739809498e-26	6.364054426451381e8	2.599568702518485e25	189.0102288762755	191.24459074391285	3.029696179520916	0.9953950279183145
0.01007802351643955	3.2200334158880555e-26	6.364054426451381e8	2.599568702518485e25	189.0102288762755	191.24459074391285	3.029696179520916	0.9953950279183145
0.010117263266253078	4.8837218940555765e-26	6.364054426451381e8	2.599568702518485e25	189.0102288762755	191.24459074391285	3.029696179520916	0.9953950279183145
0.010156655799790849	6.567146552490496e-26	6.364054426451381e8	2.599568702518485e25	189.0102288762755	191.24459074391285	3.029696179520916	0.9953950279183145
0.010196201711930844	8.257914463660819e-26	6.364054426451381e8	2.599568702518485e25	189.0102288762755	191.24459074391285	3.029696179520916	0.9953950279183145
0.010235901599867422	9.943339715766619e-26	6.364054426451381e8	2.599568702518485e25	189.0102288762755	191.24459074391285	3.029696179520916	0.9953950279183145
0.010275756063120013	1.1644324708897965e-25	6.364054426451381e8	2.599568702518485e25	189.0102288762755	191.24459074391285	3.029696179520916	0.9953950279183145
0.010315765703542498	1.3392572598396695e-25	6.364054426451381e8	2.599568702518485e25	189.0102288762755	191.24459074391285	3.029696179520916	0.9953950279183145
0.010355931125331968	1.5175306221538534e-25	6.364054426451381e8	2.599568702518485e25	189.0102288762755	191.24459074391285	3.029696179520916	0.9953950279183145
0.010396252935038177	1.6979233438793728e-25	6.364054426451381e8	2.599568702518485e25	189.0102288762755	191.24459074391285	3.029696179520916	0.9953950279183145
0.010436731741572374	1.879074562389483e-25	6.364054426451381e8	2.599568702518485e25	189.0102288762755	191.24459074391285	3.029696179520916	0.9953950279183145
0.01047736815621679	2.0595912490125023e-25	6.364054426451381e8	2.599568702518485e25	189.0102288762755	191.24459074391285	3.029696179520916	0.9953950279183145
0.010518162792633737	2.242380635605714e-25	6.364054426451381e8	2.599568702518485e25	189.0102288762755	191.24459074391285	3.029696179520916	0.9953950279183145
0.010559116266874757	2.4309143990069327e-25	6.364054426451381e8	2.599568702518485e25	189.0102288762755	191.24459074391285	3.029696179520916	0.9953950279183145
0.01060022919739022	2.624506180610312e-25	6.364054426451381e8	2.599568702518485e25	189.0102288762755	191.24459074391285	3.029696179520916	0.9953950279183145
0.01064150220503831	2.822452576774328e-25	6.364054426451381e8	2.599568702518485e25	189.0102288762755	191.24459074391285	3.029696179520916	0.9953950279183145
0.010682935913094766	3.02403292833979e-25	6.364054426451381e8	2.599568702518485e25	189.0102288762755	191.24459074391285	3.029696179520916	0.9953950279183145
0.01072453094726193	3.2285090361074825e-25	6.364054426451381e8	2.599568702518485e25	189.0102288762755	191.24459074391285	3.029696179520916	0.9953950279183145
0.010766287935678555	3.435124872295384e-25	6.364054426451381e8	2.599568702518485e25	189.0102288762755	191.24459074391285	3.029696179520916	0.9953950279183145
0.010808207508928934	3.6431062879157523e-25	6.364054426451381e8	2.599568702518485e25	189.0102288762755	191.24459074391285	3.029696179520916	0.9953950279183145
0.010850290300052733	3.8516607160255914e-25	6.364054426451381e8	2.599568702518485e25	189.0102288762755	191.24459074391285	3.029696179520916	0.9953950279183145
0.01089253694455442	4.059976870790721e-25	6.364054426451381e8	2.599568702518485e25	189.0102288762755	191.24459074391285	3.029696179520916	0.9953950279183145
0.010934948080412727	4.267224442311088e-25	6.364054426451381e8	2.599568702518485e25	189.0102288762755	191.24459074391285	3.029696179520916	0.9953950279183145
0.010977524348090595	4.473895391796611e-25	6.364054426451381e8	2.599568702518485e25	189.0102288762755	191.24459074391285	3.029696179520916	0.9953950279183145
0.011020266390544486	4.686389520137241e-25	6.364054426451381e8	2.599568702518485e25	189.0102288762755	191.24459074391285	3.029696179520916	0.9953950279183145
0.011063174853234464	4.904971216986751e-25	6.364054426451381e8	2.599568702518485e25	189.0102288762755	191.24459074391285	3.029696179520916	0.9953950279183145
0.011106250384133562	5.128806498472264e-25	6.364054426451381e8	2.599568702518485e25	189.0102288762755	191.24459074391285	3.029696179520916	0.9953950279183145
0.011149493633737947	5.357040902772717e-25	6.364054426451381e8	2.599568702518485e25	189.0102288762755	191.24459074391285	3.029696179520916	0.9953950279183145
0.011192905255076371	5.588799152362391e-25	6.364054426451381e8	2.599568702518485e25	189.0102288762755	191.24459074391285	3.029696179520916	0.9953950279183145
0.011236485903720396	5.823184811481024e-25	6.364054426451381e8	2.599568702518485e25	189.0102288762755	191.24459074391285	3.029696179520916	0.9953950279183145
0.011280236237793936	6.0592799387600065e-25	6.364054426451381e8	2.599568702518485e25	189.0102288762755	191.24459074391285	3.029696179520916	0.9953950279183145
0.01132415691798351	6.296144734948778e-25	6.364054426451381e8	2.599568702518485e25	189.0102288762755	191.24459074391285	3.029696179520916	0.9953950279183145
0.011368248607548079	6.5328171856711775e-25	6.364054426451381e8	2.599568702518485e25	189.0102288762755	191.24459074391285	3.029696179520916	0.9953950279183145
0.01141251197232893	6.768312699149242e-25	6.364054426451381e8	2.599568702518485e25	189.0102288762755	191.24459074391285	3.029696179520916	0.9953950279183145
0.011456947680760058	7.0025138950926915e-25	6.364054426451381e8	2.599568702518485e25	189.0102288762755	191.24459074391285	3.029696179520916	0.9953950279183145
0.011501556403877873	7.239259743628928e-25	6.364054426451381e8	2.599568702518485e25	189.0102288762755	191.24459074391285	3.029696179520916	0.9953950279183145
0.01154633881533173	7.479151859193767e-25	6.364054426451381e8	2.599568702518485e25	189.0102288762755	191.24459074391285	3.029696179520916	0.9953950279183145
0.0115912955913937	7.722219848210099e-25	6.364054426451381e8	2.599568702518485e25	189.0102288762755	191.24459074391285	3.029696179520916	0.9953950279183145
0.011636427410969182	7.968493567796001e-25	6.364054426451381e8	2.599568702518485e25	189.0102288762755	191.24459074391285	3.029696179520916	0.9953950279183145
0.011681734955606767	8.218003127795235e-25	6.364054426451381e8	2.599568702518485e25	189.0102288762755	191.24459074391285	3.029696179520916	0.9953950279183145
0.011727218909508908	8.470778892828273e-25	6.364054426451381e8	2.599568702518485e25	189.0102288762755	191.24459074391285	3.029696179520916	0.9953950279183145
0.01177287995954188	8.726851484355214e-25	6.364054426451381e8	2.599568702518485e25	189.0102288762755	191.24459074391285	3.029696179520916	0.9953950279183145
0.011818718795246475	8.98625178275929e-25	6.364054426451381e8	2.599568702518485e25	189.0102288762755	191.24459074391285	3.029696179520916	0.9953950279183145
0.011864736108848284	9.249010929444102e-25	6.364054426451381e8	2.599568702518485e25	189.0102288762755	191.24459074391285	3.029696179520916	0.9953950279183145
0.011910932595267995	9.515160328947544e-25	6.364054426451381e8	2.599568702518485e25	189.0102288762755	191.24459074391285	3.029696179520916	0.9953950279183145
0.011957308952132236	9.784731651075349e-25	6.364054426451381e8	2.599568702518485e25	189.0102288762755	191.24459074391285	3.029696179520916	0.9953950279183145
0.01200386587978371	1.0057756833047262e-24	6.364054426451381e8	2.599568702518485e25	189.0102288762755	191.24459074391285	3.029696179520916	0.9953950279183145
0.012050604081292169	1.033426808166497e-24	6.364054426451381e8	2.599568702518485e25	189.0102288762755	191.24459074391285	3.029696179520916	0.9953950279183145
0.012097524262464642	1.0614297875492582e-24	6.364054426451381e8	2.599568702518485e25	189.0102288762755	191.24459074391285	3.029696179520916	0.9953950279183145
0.012144627131856477	1.0897878967058959e-24	6.364054426451381e8	2.599568702518485e25	189.0102288762755	191.24459074391285	3.029696179520916	0.9953950279183145
0.012191913400781657	1.1185044385073088e-24	6.364054426451381e8	2.599568702518485e25	189.0102288762755	191.24459074391285	3.029696179520916	0.9953950279183145
0.012239383783323926	1.1475827436661579e-24	6.364054426451381e8	2.599568702518485e25	189.0102288762755	191.24459074391285	3.029696179520916	0.9953950279183145
0.01228703899634719	1.1770261709619235e-24	6.364054426451381e8	2.599568702518485e25	189.0102288762755	191.24459074391285	3.029696179520916	0.9953950279183145
0.012334879759506676	1.2068381074682051e-24	6.364054426451381e8	2.599568702518485e25	189.0102288762755	191.24459074391285	3.029696179520916	0.9953950279183145
0.012382906795259666	1.2370219687815202e-24	6.364054426451381e8	2.599568702518485e25	189.0102288762755	191.24459074391285	3.029696179520916	0.9953950279183145
0.012431120828876237	1.2675811992519059e-24	6.364054426451381e8	2.599568702518485e25	189.0102288762755	191.24459074391285	3.029696179520916	0.9953950279183145
0.012479522588450588	1.2985192722156938e-24	6.364054426451381e8	2.599568702518485e25	189.0102288762755	191.24459074391285	3.029696179520916	0.9953950279183145
0.012528112804911609	1.3298396902296176e-24	6.364054426451381e8	2.599568702518485e25	189.0102288762755	191.24459074391285	3.029696179520916	0.9953950279183145
0.012576892212034348	1.361545985307341e-24	6.364054426451381e8	2.599568702518485e25	189.0102288762755	191.24459074391285	3.029696179520916	0.9953950279183145
0.012625861546450652	1.393641719157291e-24	6.364054426451381e8	2.599568702518485e25	189.0102288762755	191.24459074391285	3.029696179520916	0.9953950279183145
0.012675021547660743	1.4261304834229553e-24	6.364054426451381e8	2.599568702518485e25	189.0102288762755	191.24459074391285	3.029696179520916	0.9953950279183145
0.012724372958043939	1.4590158999245156e-24	6.364054426451381e8	2.599568702518485e25	189.0102288762755	191.24459074391285	3.029696179520916	0.9953950279183145
0.012773916522870233	1.4923016209029202e-24	6.364054426451381e8	2.599568702518485e25	189.0102288762755	191.24459074391285	3.029696179520916	0.9953950279183145
0.012823652990311414	1.5259913292655643e-24	6.364054426451381e8	2.599568702518485e25	189.0102288762755	191.24459074391285	3.029696179520916	0.9953950279183145
0.012873583111452182	1.560088738833892e-24	6.364054426451381e8	2.599568702518485e25	189.0102288762755	191.24459074391285	3.029696179520916	0.9953950279183145
0.012923707640301867	1.5945975945933376e-24	6.364054426451381e8	2.599568702518485e25	189.0102288762755	191.24459074391285	3.029696179520916	0.9953950279183145
0.012974027333805397	1.629521672944704e-24	6.364054426451381e8	2.599568702518485e25	189.0102288762755	191.24459074391285	3.029696179520916	0.9953950279183145
0.013024542951855156	1.6648647819581216e-24	6.364054426451381e8	2.599568702518485e25	189.0102288762755	191.24459074391285	3.029696179520916	0.9953950279183145
0.013075255257302017	1.700630761628425e-24	6.364054426451381e8	2.599568702518485e25	189.0102288762755	191.24459074391285	3.029696179520916	0.9953950279183145
0.013126165015967313	1.736823484133163e-24	6.364054426451381e8	2.599568702518485e25	189.0102288762755	191.24459074391285	3.029696179520916	0.9953950279183145
0.013177272996653947	1.773446854092039e-24	6.364054426451381e8	2.599568702518485e25	189.0102288762755	191.24459074391285	3.029696179520916	0.9953950279183145
0.013228579971158455	1.8105048088290336e-24	6.364054426451381e8	2.599568702518485e25	189.0102288762755	191.24459074391285	3.029696179520916	0.9953950279183145
0.013280086714282218	1.848001318635977e-24	6.364054426451381e8	2.599568702518485e25	189.0102288762755	191.24459074391285	3.029696179520916	0.9953950279183145
0.013331794003843545	1.8859403870388033e-24	6.364054426451381e8	2.599568702518485e25	189.0102288762755	191.24459074391285	3.029696179520916	0.9953950279183145
0.01338370262068925	1.9243260510655245e-24	6.364054426451381e8	2.599568702518485e25	189.0102288762755	191.24459074391285	3.029696179520916	0.9953950279183145
0.013435813348706289	1.963162381516314e-24	6.364054426451381e8	2.599568702518485e25	189.0102288762755	191.24459074391285	3.029696179520916	0.9953950279183145
0.013488126974833975	2.002453483236163e-24	6.364054426451381e8	2.599568702518485e25	189.0102288762755	191.24459074391285	3.029696179520916	0.9953950279183145
0.013540644289075424	2.0422034953890558e-24	6.364054426451381e8	2.599568702518485e25	189.0102288762755	191.24459074391285	3.029696179520916	0.9953950279183145
0.01359336608450993	2.082416591735003e-24	6.364054426451381e8	2.599568702518485e25	189.0102288762755	191.24459074391285	3.029696179520916	0.9953950279183145
0.01364629315730449	2.1230969809085867e-24	6.364054426451381e8	2.599568702518485e25	189.0102288762755	191.24459074391285	3.029696179520916	0.9953950279183145
0.013699426306726274	2.1642489067004e-24	6.364054426451381e8	2.599568702518485e25	189.0102288762755	191.24459074391285	3.029696179520916	0.9953950279183145
0.01375276633515426	2.205876648340035e-24	6.364054426451381e8	2.599568702518485e25	189.0102288762755	191.24459074391285	3.029696179520916	0.9953950279183145
0.013806314048091788	2.2479845207819962e-24	6.364054426451381e8	2.599568702518485e25	189.0102288762755	191.24459074391285	3.029696179520916	0.9953950279183145
0.013860070254178267	2.2905768749931752e-24	6.364054426451381e8	2.599568702518485e25	189.0102288762755	191.24459074391285	3.029696179520916	0.9953950279183145
0.013914035765201803	2.3336580982432983e-24	6.364054426451381e8	2.599568702518485e25	189.0102288762755	191.24459074391285	3.029696179520916	0.9953950279183145
0.013968211396111272	2.3772326143971972e-24	6.364054426451381e8	2.599568702518485e25	189.0102288762755	191.24459074391285	3.029696179520916	0.9953950279183145
0.01402259796502846	2.4213048842093957e-24	6.364054426451381e8	2.599568702518485e25	189.0102288762755	191.24459074391285	3.029696179520916	0.9953950279183145
0.014077196293260815	2.4658794056215164e-24	6.364054426451381e8	2.599568702518485e25	189.0102288762755	191.24459074391285	3.029696179520916	0.9953950279183145
0.014132007205313405	2.5109607140613215e-24	6.364054426451381e8	2.599568702518485e25	189.0102288762755	191.24459074391285	3.029696179520916	0.9953950279183145
0.014187031528901804	2.5565533827448813e-24	6.364054426451381e8	2.599568702518485e25	189.0102288762755	191.24459074391285	3.029696179520916	0.9953950279183145
0.014242270094964149	2.6026620229803836e-24	6.364054426451381e8	2.599568702518485e25	189.0102288762755	191.24459074391285	3.029696179520916	0.9953950279183145
0.014297723737674156	2.6492912844751148e-24	6.364054426451381e8	2.599568702518485e25	189.0102288762755	191.24459074391285	3.029696179520916	0.9953950279183145
0.01435339329445323	2.6964458556440893e-24	6.364054426451381e8	2.599568702518485e25	189.0102288762755	191.24459074391285	3.029696179520916	0.9953950279183145
0.014409279605983538	2.7441304639218645e-24	6.364054426451381e8	2.599568702518485e25	189.0102288762755	191.24459074391285	3.029696179520916	0.9953950279183145
0.014465383516220525	2.7923498760763387e-24	6.364054426451381e8	2.599568702518485e25	189.0102288762755	191.24459074391285	3.029696179520916	0.9953950279183145
0.014521705872405477	2.8411088985250213e-24	6.364054426451381e8	2.599568702518485e25	189.0102288762755	191.24459074391285	3.029696179520916	0.9953950279183145
0.014578247525078733	2.8904123776543083e-24	6.364054426451381e8	2.599568702518485e25	189.0102288762755	191.24459074391285	3.029696179520916	0.9953950279183145
0.014635009328092054	2.940265200140547e-24	6.364054426451381e8	2.599568702518485e25	189.0102288762755	191.24459074391285	3.029696179520916	0.9953950279183145
0.014691992138621999	2.990672293274442e-24	6.364054426451381e8	2.599568702518485e25	189.0102288762755	191.24459074391285	3.029696179520916	0.9953950279183145
0.014749196817182375	3.0416386252871997e-24	6.364054426451381e8	2.599568702518485e25	189.0102288762755	191.24459074391285	3.029696179520916	0.9953950279183145
0.014806624227637732	3.093169205680118e-24	6.364054426451381e8	2.599568702518485e25	189.0102288762755	191.24459074391285	3.029696179520916	0.9953950279183145
0.01486427523721592	3.1452690855559118e-24	6.364054426451381e8	2.599568702518485e25	189.0102288762755	191.24459074391285	3.029696179520916	0.9953950279183145
0.014922150716521651	3.197943357953517e-24	6.364054426451381e8	2.599568702518485e25	189.0102288762755	191.24459074391285	3.029696179520916	0.9953950279183145
0.014980251539549194	3.2511971581847136e-24	6.364054426451381e8	2.599568702518485e25	189.0102288762755	191.24459074391285	3.029696179520916	0.9953950279183145
0.01503857858369597	3.3050356641741925e-24	6.364054426451381e8	2.599568702518485e25	189.0102288762755	191.24459074391285	3.029696179520916	0.9953950279183145
0.015097132729775638	3.3594640968017846e-24	6.364054426451381e8	2.599568702518485e25	189.0102288762755	191.24459074391285	3.029696179520916	0.9953950279183145
0.015155914862031201	3.414487720247396e-24	6.364054426451381e8	2.599568702518485e25	189.0102288762755	191.24459074391285	3.029696179520916	0.9953950279183145
0.015214925868148795	3.4701118423392274e-24	6.364054426451381e8	2.599568702518485e25	189.0102288762755	191.24459074391285	3.029696179520916	0.9953950279183145
0.015274166639270597	3.526341814903902e-24	6.364054426451381e8	2.599568702518485e25	189.0102288762755	191.24459074391285	3.029696179520916	0.9953950279183145
0.015333638070008784	3.583183034120301e-24	6.364054426451381e8	2.599568702518485e25	189.0102288762755	191.24459074391285	3.029696179520916	0.9953950279183145
0.015393341058458538	3.6406409408752244e-24	6.364054426451381e8	2.599568702518485e25	189.0102288762755	191.24459074391285	3.029696179520916	0.9953950279183145
0.01545327650621211	3.698721021122859e-24	6.364054426451381e8	2.599568702518485e25	189.0102288762755	191.24459074391285	3.029696179520916	0.9953950279183145
0.015513445318371944	3.757428806246106e-24	6.364054426451381e8	2.599568702518485e25	189.0102288762755	191.24459074391285	3.029696179520916	0.9953950279183145
0.01557384840356483	3.816769873421738e-24	6.364054426451381e8	2.599568702518485e25	189.0102288762755	191.24459074391285	3.029696179520916	0.9953950279183145
0.015634486673955134	3.876749845987472e-24	6.364054426451381e8	2.599568702518485e25	189.0102288762755	191.24459074391285	3.029696179520916	0.9953950279183145
0.01569536104525901	3.937374393812862e-24	6.364054426451381e8	2.599568702518485e25	189.0102288762755	191.24459074391285	3.029696179520916	0.9953950279183145
0.015756472436758043	3.9986492336725425e-24	6.364054426451381e8	2.599568702518485e25	189.0102288762755	191.24459074391285	3.029696179520916	0.9953950279183145
0.015817821771312936	4.060580129622348e-24	6.364054426451381e8	2.599568702518485e25	189.0102288762755	191.24459074391285	3.029696179520916	0.9953950279183145
0.015879409975377897	4.1231728933791246e-24	6.364054426451381e8	2.599568702518485e25	189.0102288762755	191.24459074391285	3.029696179520916	0.9953950279183145
0.01594123797901411	4.186433384702523e-24	6.364054426451381e8	2.599568702518485e25	189.0102288762755	191.24459074391285	3.029696179520916	0.9953950279183145
0.016003306715904306	4.2503675117808884e-24	6.364054426451381e8	2.599568702518485e25	189.0102288762755	191.24459074391285	3.029696179520916	0.9953950279183145
0.016065617123366332	4.314981231619116e-24	6.364054426451381e8	2.599568702518485e25	189.0102288762755	191.24459074391285	3.029696179520916	0.9953950279183145
0.01612817014236784	4.380280550430685e-24	6.364054426451381e8	2.599568702518485e25	189.0102288762755	191.24459074391285	3.029696179520916	0.9953950279183145
0.016190966717539966	4.4462715240316634e-24	6.364054426451381e8	2.599568702518485e25	189.0102288762755	191.24459074391285	3.029696179520916	0.9953950279183145
