r[m]	M[Msun]	rho[g/cm^3]	P[N/m^2]	n_e[pm^-3]	n_p[pm^-3]	muF_e[MeV]	B
0.010000000000000018	2.7432300596673043e-39	2.3816058878371045e8	6.893154882143834e24	70.75118487800366	71.5966415383533	2.0652219010220736	0.9967732955677167
0.010039420252999443	6.0233159130953996e-27	2.3816058878371045e8	6.893154882143834e24	70.75118487800366	71.5966415383533	2.0652219010220736	0.9967732955677167
0.01007899590163348	1.2239186743309108e-26	2.3816058878371045e8	6.893154882143834e24	70.75118487800366	71.5966415383533	2.0652219010220736	0.9967732955677167
0.010118727558475737	1.8625600516497106e-26	2.3816058878371045e8	6.893154882143834e24	70.75118487800366	71.5966415383533	2.0652219010220736	0.9967732955677167
0.010158615838514474	2.5159992417284603e-26	2.3816058878371045e8	6.893154882143834e24	70.75118487800366	71.5966415383533	2.0652219010220736	0.9967732955677167
0.010198661359162253	3.181923553018092e-26	2.3816058878371045e8	6.893154882143834e24	70.75118487800366	71.5966415383533	2.0652219010220736	0.9967732955677167
0.010238864740265616	3.85796314479284e-26	2.3816058878371045e8	6.893154882143834e24	70.75118487800366	71.5966415383533	2.0652219010220736	0.9967732955677167
0.010279226604114433	4.5416900745255596e-26	2.3816058878371045e8	6.893154882143834e24	70.75118487800366	71.5966415383533	2.0652219010220736	0.9967732955677167
0.010319747575451652	5.230617331638072e-26	2.3816058878371045e8	6.893154882143834e24	70.75118487800366	71.5966415383533	2.0652219010220736	0.9967732955677167
0.010360428281483104	5.922197857439383e-26	2.3816058878371045e8	6.893154882143834e24	70.75118487800366	71.5966415383533	2.0652219010220736	0.9967732955677167
0.010401269351886951	6.613823551061959e-26	2.3816058878371045e8	6.893154882143834e24	70.75118487800366	71.5966415383533	2.0652219010220736	0.9967732955677167
0.010442271418823562	7.30282426122369e-26	2.3816058878371045e8	6.893154882143834e24	70.75118487800366	71.5966415383533	2.0652219010220736	0.9967732955677167
0.010483435116945432	7.986724672719286e-26	2.3816058878371045e8	6.893154882143834e24	70.75118487800366	71.5966415383533	2.0652219010220736	0.9967732955677167
0.010524761083406737	8.682558481545624e-26	2.3816058878371045e8	6.893154882143834e24	70.75118487800366	71.5966415383533	2.0652219010220736	0.9967732955677167
0.010566249957873334	9.400060254793602e-26	2.3816058878371045e8	6.893154882143834e24	70.75118487800366	71.5966415383533	2.0652219010220736	0.9967732955677167
0.010607902382532787	1.0136557974252102e-25	2.3816058878371045e8	6.893154882143834e24	70.75118487800366	71.5966415383533	2.0652219010220736	0.9967732955677167
0.010649719002104053	1.088931279263652e-25	2.3816058878371045e8	6.893154882143834e24	70.75118487800366	71.5966415383533	2.0652219010220736	0.9967732955677167
0.010691700463847582	1.1655517915666314e-25	2.3816058878371045e8	6.893154882143834e24	70.75118487800366	71.5966415383533	2.0652219010220736	0.9967732955677167
0.010733847417575475	1.2432297468120918e-25	2.3816058878371045e8	6.893154882143834e24	70.75118487800366	71.5966415383533	2.0652219010220736	0.9967732955677167
0.010776160515661281	1.3216705343653635e-25	2.3816058878371045e8	6.893154882143834e24	70.75118487800366	71.5966415383533	2.0652219010220736	0.9967732955677167
0.010818640413050215	1.4005724038162442e-25	2.3816058878371045e8	6.893154882143834e24	70.75118487800366	71.5966415383533	2.0652219010220736	0.9967732955677167
0.01086128776726944	1.4796263466493006e-25	2.3816058878371045e8	6.893154882143834e24	70.75118487800366	71.5966415383533	2.0652219010220736	0.9967732955677167
0.010904103238437974	1.5585159762245037e-25	2.3816058878371045e8	6.893154882143834e24	70.75118487800366	71.5966415383533	2.0652219010220736	0.9967732955677167
0.010947087489277035	1.636917406047311e-25	2.3816058878371045e8	6.893154882143834e24	70.75118487800366	71.5966415383533	2.0652219010220736	0.9967732955677167
0.01099024118512045	1.715664275125653e-25	2.3816058878371045e8	6.893154882143834e24	70.75118487800366	71.5966415383533	2.0652219010220736	0.9967732955677167
0.011033564993924666	1.7970742229026696e-25	2.3816058878371045e8	6.893154882143834e24	70.75118487800366	71.5966415383533	2.0652219010220736	0.9967732955677167
0.011077059586279232	1.881089452237413e-25	2.3816058878371045e8	6.893154882143834e24	70.75118487800366	71.5966415383533	2.0652219010220736	0.9967732955677167
0.011120725635417316	1.967559608067335e-25	2.3816058878371045e8	6.893154882143834e24	70.75118487800366	71.5966415383533	2.0652219010220736	0.9967732955677167
0.01116456381722585	2.0563303524400914e-25	2.3816058878371045e8	6.893154882143834e24	70.75118487800366	71.5966415383533	2.0652219010220736	0.9967732955677167
0.01120857481025613	2.1472432968462487e-25	2.3816058878371045e8	6.893154882143834e24	70.75118487800366	71.5966415383533	2.0652219010220736	0.9967732955677167
0.011252759295734459	2.240135933575709e-25	2.3816058878371045e8	6.893154882143834e24	70.75118487800366	71.5966415383533	2.0652219010220736	0.9967732955677167
0.01129711795757241	2.334841566083995e-25	2.3816058878371045e8	6.893154882143834e24	70.75118487800366	71.5966415383533	2.0652219010220736	0.9967732955677167
0.011341651482377547	2.4311892383569137e-25	2.3816058878371045e8	6.893154882143834e24	70.75118487800366	71.5966415383533	2.0652219010220736	0.9967732955677167
0.011386360559464211	2.529003663259469e-25	2.3816058878371045e8	6.893154882143834e24	70.75118487800366	71.5966415383533	2.0652219010220736	0.9967732955677167
0.011431245880863885	2.6281051498544966e-25	2.3816058878371045e8	6.893154882143834e24	70.75118487800366	71.5966415383533	2.0652219010220736	0.9967732955677167
0.011476308141336069	2.7283095296793085e-25	2.3816058878371045e8	6.893154882143834e24	70.75118487800366	71.5966415383533	2.0652219010220736	0.9967732955677167
0.011521548038379152	2.829428081965394e-25	2.3816058878371045e8	6.893154882143834e24	70.75118487800366	71.5966415383533	2.0652219010220736	0.9967732955677167
0.011566966272240947	2.931267457786439e-25	2.3816058878371045e8	6.893154882143834e24	70.75118487800366	71.5966415383533	2.0652219010220736	0.9967732955677167
0.011612563545929653	3.033629603122087e-25	2.3816058878371045e8	6.893154882143834e24	70.75118487800366	71.5966415383533	2.0652219010220736	0.9967732955677167
0.0116583405652249	3.136311680822327e-25	2.3816058878371045e8	6.893154882143834e24	70.75118487800366	71.5966415383533	2.0652219010220736	0.9967732955677167
0.011704298038688362	3.239105991456817e-25	2.3816058878371045e8	6.893154882143834e24	70.75118487800366	71.5966415383533	2.0652219010220736	0.9967732955677167
0.011750436677674891	3.341799893036438e-25	2.3816058878371045e8	6.893154882143834e24	70.75118487800366	71.5966415383533	2.0652219010220736	0.9967732955677167
0.011796757196343658	3.444175719591038e-25	2.3816058878371045e8	6.893154882143834e24	70.75118487800366	71.5966415383533	2.0652219010220736	0.9967732955677167
0.011843260311668923	3.546010698587391e-25	2.3816058878371045e8	6.893154882143834e24	70.75118487800366	71.5966415383533	2.0652219010220736	0.9967732955677167
0.01188994674345128	3.647076867173895e-25	2.3816058878371045e8	6.893154882143834e24	70.75118487800366	71.5966415383533	2.0652219010220736	0.9967732955677167
0.011936817214328934	3.7477623735315836e-25	2.3816058878371045e8	6.893154882143834e24	70.75118487800366	71.5966415383533	2.0652219010220736	0.9967732955677167
0.011983872449788609	3.8514387122111105e-25	2.3816058878371045e8	6.893154882143834e24	70.75118487800366	71.5966415383533	2.0652219010220736	0.9967732955677167
0.01203111317817691	3.958476022056427e-25	2.3816058878371045e8	6.893154882143834e24	70.75118487800366	71.5966415383533	2.0652219010220736	0.9967732955677167
0.012078540130711754	4.0686627979469126e-25	2.3816058878371045e8	6.893154882143834e24	70.75118487800366	71.5966415383533	2.0652219010220736	0.9967732955677167
0.012126154041493392	4.181781980192442e-25	2.3816058878371045e8	6.893154882143834e24	70.75118487800366	71.5966415383533	2.0652219010220736	0.9967732955677167
0.012173955647515911	4.29761086037562e-25	2.3816058878371045e8	6.893154882143834e24	70.75118487800366	71.5966415383533	2.0652219010220736	0.9967732955677167
0.012221945688678796	4.4159209858368855e-25	2.3816058878371045e8	6.893154882143834e24	70.75118487800366	71.5966415383533	2.0652219010220736	0.9967732955677167
0.01227012490779809	4.536478062783256e-25	2.3816058878371045e8	6.893154882143834e24	70.75118487800366	71.5966415383533	2.0652219010220736	0.9967732955677167
0.012318494050618037	4.659041858004574e-25	2.3816058878371045e8	6.893154882143834e24	70.75118487800366	71.5966415383533	2.0652219010220736	0.9967732955677167
0.012367053865822764	4.783366099177671e-25	2.3816058878371045e8	6.893154882143834e24	70.75118487800366	71.5966415383533	2.0652219010220736	0.9967732955677167
0.012415805105047589	4.909198373738583e-25	2.3816058878371045e8	6.893154882143834e24	70.75118487800366	71.5966415383533	2.0652219010220736	0.9967732955677167
0.012464748522890793	5.036280026305979e-25	2.3816058878371045e8	6.893154882143834e24	70.75118487800366	71.5966415383533	2.0652219010220736	0.9967732955677167
0.012513884876925448	5.16434605463549e-25	2.3816058878371045e8	6.893154882143834e24	70.75118487800366	71.5966415383533	2.0652219010220736	0.9967732955677167
0.012563214927710856	5.293125004084319e-25	2.3816058878371045e8	6.893154882143834e24	70.75118487800366	71.5966415383533	2.0652219010220736	0.9967732955677167
0.012612739438804458	5.42233886056856e-25	2.3816058878371045e8	6.893154882143834e24	70.75118487800366	71.5966415383533	2.0652219010220736	0.9967732955677167
0.012662459176773807	5.551702941992266e-25	2.3816058878371045e8	6.893154882143834e24	70.75118487800366	71.5966415383533	2.0652219010220736	0.9967732955677167
0.012712374911208139	5.68092578812673e-25	2.3816058878371045e8	6.893154882143834e24	70.75118487800366	71.5966415383533	2.0652219010220736	0.9967732955677167
0.012762487414730425	5.809709048921778e-25	2.3816058878371045e8	6.893154882143834e24	70.75118487800366	71.5966415383533	2.0652219010220736	0.9967732955677167
0.01281279746300949	5.937747371227317e-25	2.3816058878371045e8	6.893154882143834e24	70.75118487800366	71.5966415383533	2.0652219010220736	0.9967732955677167
0.012863305834771712	6.064728283902719e-25	2.3816058878371045e8	6.893154882143834e24	70.75118487800366	71.5966415383533	2.0652219010220736	0.9967732955677167
0.012914013311813228	6.1916376567183865e-25	2.3816058878371045e8	6.893154882143834e24	70.75118487800366	71.5966415383533	2.0652219010220736	0.9967732955677167
0.012964920679012192	6.32039755476337e-25	2.3816058878371045e8	6.893154882143834e24	70.75118487800366	71.5966415383533	2.0652219010220736	0.9967732955677167
0.013016028724340604	6.451049828233582e-25	2.3816058878371045e8	6.893154882143834e24	70.75118487800366	71.5966415383533	2.0652219010220736	0.9967732955677167
0.01306733823887668	6.583612876278288e-25	2.3816058878371045e8	6.893154882143834e24	70.75118487800366	71.5966415383533	2.0652219010220736	0.9967732955677167
0.013118850016817238	6.718105256993513e-25	2.3816058878371045e8	6.893154882143834e24	70.75118487800366	71.5966415383533	2.0652219010220736	0.9967732955677167
0.013170564855489685	6.854545688730443e-25	2.3816058878371045e8	6.893154882143834e24	70.75118487800366	71.5966415383533	2.0652219010220736	0.9967732955677167
0.013222483555364503	6.992953051415594e-25	2.3816058878371045e8	6.893154882143834e24	70.75118487800366	71.5966415383533	2.0652219010220736	0.9967732955677167
0.013274606920067825	7.133346387881745e-25	2.3816058878371045e8	6.893154882143834e24	70.75118487800366	71.5966415383533	2.0652219010220736	0.9967732955677167
0.013326935756393526	7.275744905208116e-25	2.3816058878371045e8	6.893154882143834e24	70.75118487800366	71.5966415383533	2.0652219010220736	0.9967732955677167
0.013379470874315883	7.420167976072788e-25	2.3816058878371045e8	6.893154882143834e24	70.75118487800366	71.5966415383533	2.0652219010220736	0.9967732955677167
0.01343221308700228	7.5666351401159735e-25	2.3816058878371045e8	6.893154882143834e24	70.75118487800366	71.5966415383533	2.0652219010220736	0.9967732955677167
0.013485163210825463	7.715166105313023e-25	2.3816058878371045e8	6.893154882143834e24	70.75118487800366	71.5966415383533	2.0652219010220736	0.9967732955677167
0.013538322065376335	7.865780749359639e-25	2.3816058878371045e8	6.893154882143834e24	70.75118487800366	71.5966415383533	2.0652219010220736	0.9967732955677167
0.013591690473476819	8.018499121068493e-25	2.3816058878371045e8	6.893154882143834e24	70.75118487800366	71.5966415383533	2.0652219010220736	0.9967732955677167
0.01364526926119225	8.173341441775546e-25	2.3816058878371045e8	6.893154882143834e24	70.75118487800366	71.5966415383533	2.0652219010220736	0.9967732955677167
0.013699059257844344	8.330328106759165e-25	2.3816058878371045e8	6.893154882143834e24	70.75118487800366	71.5966415383533	2.0652219010220736	0.9967732955677167
0.013753061296024178	8.48947968667064e-25	2.3816058878371045e8	6.893154882143834e24	70.75118487800366	71.5966415383533	2.0652219010220736	0.9967732955677167
0.013807276211604765	8.650816928974814e-25	2.3816058878371045e8	6.893154882143834e24	70.75118487800366	71.5966415383533	2.0652219010220736	0.9967732955677167
0.01386170484375415	8.814360759403776e-25	2.3816058878371045e8	6.893154882143834e24	70.75118487800366	71.5966415383533	2.0652219010220736	0.9967732955677167
0.013916348034948563	8.980132283422162e-25	2.3816058878371045e8	6.893154882143834e24	70.75118487800366	71.5966415383533	2.0652219010220736	0.9967732955677167
0.013971206630985139	9.148152787702954e-25	2.3816058878371045e8	6.893154882143834e24	70.75118487800366	71.5966415383533	2.0652219010220736	0.9967732955677167
0.014026281480995148	9.318443741616455e-25	2.3816058878371045e8	6.893154882143834e24	70.75118487800366	71.5966415383533	2.0652219010220736	0.9967732955677167
0.014081573437457345	9.491026798731422e-25	2.3816058878371045e8	6.893154882143834e24	70.75118487800366	71.5966415383533	2.0652219010220736	0.9967732955677167
0.0141370833562108	9.665923798326673e-25	2.3816058878371045e8	6.893154882143834e24	70.75118487800366	71.5966415383533	2.0652219010220736	0.9967732955677167
0.014192812096468324	9.843156766916353e-25	2.3816058878371045e8	6.893154882143834e24	70.75118487800366	71.5966415383533	2.0652219010220736	0.9967732955677167
0.014248760520829932	1.0022747919787602e-24	2.3816058878371045e8	6.893154882143834e24	70.75118487800366	71.5966415383533	2.0652219010220736	0.9967732955677167
0.014304929495295866	1.0204719662548955e-24	2.3816058878371045e8	6.893154882143834e24	70.75118487800366	71.5966415383533	2.0652219010220736	0.9967732955677167
0.014361319889280159	1.0389094592692744e-24	2.3816058878371045e8	6.893154882143834e24	70.75118487800366	71.5966415383533	2.0652219010220736	0.9967732955677167
0.014417932575624268	1.0575895501170254e-24	2.3816058878371045e8	6.893154882143834e24	70.75118487800366	71.5966415383533	2.0652219010220736	0.9967732955677167
0.014474768430610244	1.076514537397764e-24	2.3816058878371045e8	6.893154882143834e24	70.75118487800366	71.5966415383533	2.0652219010220736	0.9967732955677167
0.01453182833397446	1.0956867393756497e-24	2.3816058878371045e8	6.893154882143834e24	70.75118487800366	71.5966415383533	2.0652219010220736	0.9967732955677167
0.014589113168921407	1.1151084941407293e-24	2.3816058878371045e8	6.893154882143834e24	70.75118487800366	71.5966415383533	2.0652219010220736	0.9967732955677167
0.014646623822137021	1.134782159771388e-24	2.3816058878371045e8	6.893154882143834e24	70.75118487800366	71.5966415383533	2.0652219010220736	0.9967732955677167
0.014704361183802568	1.1547101144983e-24	2.3816058878371045e8	6.893154882143834e24	70.75118487800366	71.5966415383533	2.0652219010220736	0.9967732955677167
0.014762326147608612	1.1748947568696922e-24	2.3816058878371045e8	6.893154882143834e24	70.75118487800366	71.5966415383533	2.0652219010220736	0.9967732955677167
0.014820519610768485	1.1953385059177554e-24	2.3816058878371045e8	6.893154882143834e24	70.75118487800366	71.5966415383533	2.0652219010220736	0.9967732955677167
0.01487894247403237	1.2160438013265794e-24	2.3816058878371045e8	6.893154882143834e24	70.75118487800366	71.5966415383533	2.0652219010220736	0.9967732955677167
0.014937595641701393	1.2370131036014335e-24	2.3816058878371045e8	6.893154882143834e24	70.75118487800366	71.5966415383533	2.0652219010220736	0.9967732955677167
0.014996480021641292	1.2582488942392296e-24	2.3816058878371045e8	6.893154882143834e24	70.75118487800366	71.5966415383533	2.0652219010220736	0.9967732955677167
0.015055596525296623	1.2797536759005317e-24	2.3816058878371045e8	6.893154882143834e24	70.75118487800366	71.5966415383533	2.0652219010220736	0.9967732955677167
0.015114946067705071	1.3015299725829684e-24	2.3816058878371045e8	6.893154882143834e24	70.75118487800366	71.5966415383533	2.0652219010220736	0.9967732955677167
0.01517452956751123	1.3235803297958238e-24	2.3816058878371045e8	6.893154882143834e24	70.75118487800366	71.5966415383533	2.0652219010220736	0.9967732955677167
0.015234347946981022	1.3459073147362434e-24	2.3816058878371045e8	6.893154882143834e24	70.75118487800366	71.5966415383533	2.0652219010220736	0.9967732955677167
0.01529440213201615	1.3685135164668543e-24	2.3816058878371045e8	6.893154882143834e24	70.75118487800366	71.5966415383533	2.0652219010220736	0.9967732955677167
0.015354693052168054	1.3914015460946002e-24	2.3816058878371045e8	6.893154882143834e24	70.75118487800366	71.5966415383533	2.0652219010220736	0.9967732955677167
0.01541522164065249	1.414574036951234e-24	2.3816058878371045e8	6.893154882143834e24	70.75118487800366	71.5966415383533	2.0652219010220736	0.9967732955677167
0.01547598883436416	1.4380336447752515e-24	2.3816058878371045e8	6.893154882143834e24	70.75118487800366	71.5966415383533	2.0652219010220736	0.9967732955677167
0.015536995573890853	1.4617830478950804e-24	2.3816058878371045e8	6.893154882143834e24	70.75118487800366	71.5966415383533	2.0652219010220736	0.9967732955677167
0.01559824280352816	1.4858249474139485e-24	2.3816058878371045e8	6.893154882143834e24	70.75118487800366	71.5966415383533	2.0652219010220736	0.9967732955677167
0.01565973147129432	1.5101620673962497e-24	2.3816058878371045e8	6.893154882143834e24	70.75118487800366	71.5966415383533	2.0652219010220736	0.9967732955677167
0.015721462528944463	1.5347971550551692e-24	2.3816058878371045e8	6.893154882143834e24	70.75118487800366	71.5966415383533	2.0652219010220736	0.9967732955677167
0.015783436931985598	1.5597329809420642e-24	2.3816058878371045e8	6.893154882143834e24	70.75118487800366	71.5966415383533	2.0652219010220736	0.9967732955677167
0.015845655639691533	1.58497233913734e-24	2.3816058878371045e8	6.893154882143834e24	70.75118487800366	71.5966415383533	2.0652219010220736	0.9967732955677167
0.015908119615117376	1.6105180474426459e-24	2.3816058878371045e8	6.893154882143834e24	70.75118487800366	71.5966415383533	2.0652219010220736	0.9967732955677167
0.015970829825114614	1.6363729475748406e-24	2.3816058878371045e8	6.893154882143834e24	70.75118487800366	71.5966415383533	2.0652219010220736	0.9967732955677167
0.016033787240346292	1.662539905361524e-24	2.3816058878371045e8	6.893154882143834e24	70.75118487800366	71.5966415383533	2.0652219010220736	0.9967732955677167
0.01609699283530163	1.6890218109378906e-24	2.3816058878371045e8	6.893154882143834e24	70.75118487800366	71.5966415383533	2.0652219010220736	0.9967732955677167
0.016160447588311318	1.7158215789454086e-24	2.3816058878371045e8	6.893154882143834e24	70.75118487800366	71.5966415383533	2.0652219010220736	0.9967732955677167
0.01622415248156284	1.7429421487320975e-24	2.3816058878371045e8	6.893154882143834e24	70.75118487800366	71.5966415383533	2.0652219010220736	0.9967732955677167
0.016288108501115284	1.7703864845541603e-24	2.3816058878371045e8	6.893154882143834e24	70.75118487800366	71.5966415383533	2.0652219010220736	0.9967732955677167
0.016352316636914825	1.7981575757795003e-24	2.3816058878371045e8	6.893154882143834e24	70.75118487800366	71.5966415383533	2.0652219010220736	0.9967732955677167
