r[m]	M[Msun]	rho[g/cm^3]	P[N/m^2]	n_e[pm^-3]	n_p[pm^-3]	muF_e[MeV]	B
0.010000000000000007	2.6625468226182656e-38	4.606827061995256e9	3.687529142170077e26	1366.5778420420493	1382.5795726013978	6.283174861911611	0.9908756481864628
0.01003788153296994	1.116704209427827e-25	4.606827061995256e9	3.687529142170077e26	1366.5778420420493	1382.5795726013978	6.283174861911611	0.9908756481864628
0.010075906566993927	2.2553229966436537e-25	4.606827061995256e9	3.687529142170077e26	1366.5778420420493	1382.5795726013978	6.283174861911611	0.9908756481864628
0.010114075645675881	3.3997904671453914e-25	4.606827061995256e9	3.687529142170077e26	1366.5778420420493	1382.5795726013978	6.283174861911611	0.9908756481864628
0.010152389314679128	4.55302529517827e-25	4.606827061995256e9	3.687529142170077e26	1366.5778420420493	1382.5795726013978	6.283174861911611	0.9908756481864628
0.010190848121733887	5.730558687282612e-25	4.606827061995256e9	3.687529142170077e26	1366.5778420420493	1382.5795726013978	6.283174861911611	0.9908756481864628
0.010229452616645433	6.916078180951399e-25	4.606827061995256e9	3.687529142170077e26	1366.5778420420493	1382.5795726013978	6.283174861911611	0.9908756481864628
0.010268203351301613	8.101509304252454e-25	4.606827061995256e9	3.687529142170077e26	1366.5778420420493	1382.5795726013978	6.283174861911611	0.9908756481864628
0.010307100879681043	9.299820673692479e-25	4.606827061995256e9	3.687529142170077e26	1366.5778420420493	1382.5795726013978	6.283174861911611	0.9908756481864628
0.010346145757860891	1.0511846045911898e-24	4.606827061995256e9	3.687529142170077e26	1366.5778420420493	1382.5795726013978	6.283174861911611	0.9908756481864628
0.010385338544024703	1.173770701301025e-24	4.606827061995256e9	3.687529142170077e26	1366.5778420420493	1382.5795726013978	6.283174861911611	0.9908756481864628
0.010424679798470683	1.2977526156325845e-24	4.606827061995256e9	3.687529142170077e26	1366.5778420420493	1382.5795726013978	6.283174861911611	0.9908756481864628
0.010464170083619358	1.4231427054184563e-24	4.606827061995256e9	3.687529142170077e26	1366.5778420420493	1382.5795726013978	6.283174861911611	0.9908756481864628
0.010503809964021962	1.5499583316441033e-24	4.606827061995256e9	3.687529142170077e26	1366.5778420420493	1382.5795726013978	6.283174861911611	0.9908756481864628
0.010543600006368161	1.6782279291566775e-24	4.606827061995256e9	3.687529142170077e26	1366.5778420420493	1382.5795726013978	6.283174861911611	0.9908756481864628
0.010583540779494461	1.807965596012985e-24	4.606827061995256e9	3.687529142170077e26	1366.5778420420493	1382.5795726013978	6.283174861911611	0.9908756481864628
0.010623632854392209	1.939184348758028e-24	4.606827061995256e9	3.687529142170077e26	1366.5778420420493	1382.5795726013978	6.283174861911611	0.9908756481864628
0.01066387680421562	2.071897309835452e-24	4.606827061995256e9	3.687529142170077e26	1366.5778420420493	1382.5795726013978	6.283174861911611	0.9908756481864628
0.010704273204290281	2.2061177084192738e-24	4.606827061995256e9	3.687529142170077e26	1366.5778420420493	1382.5795726013978	6.283174861911611	0.9908756481864628
0.01074482263212103	2.341864706493714e-24	4.606827061995256e9	3.687529142170077e26	1366.5778420420493	1382.5795726013978	6.283174861911611	0.9908756481864628
0.010785525667400505	2.4791679791479695e-24	4.606827061995256e9	3.687529142170077e26	1366.5778420420493	1382.5795726013978	6.283174861911611	0.9908756481864628
0.010826382892017318	2.618042274898287e-24	4.606827061995256e9	3.687529142170077e26	1366.5778420420493	1382.5795726013978	6.283174861911611	0.9908756481864628
0.010867394890064224	2.7585015220209214e-24	4.606827061995256e9	3.687529142170077e26	1366.5778420420493	1382.5795726013978	6.283174861911611	0.9908756481864628
0.010908562247846792	2.900559762105877e-24	4.606827061995256e9	3.687529142170077e26	1366.5778420420493	1382.5795726013978	6.283174861911611	0.9908756481864628
0.010949885553891429	3.044231150944539e-24	4.606827061995256e9	3.687529142170077e26	1366.5778420420493	1382.5795726013978	6.283174861911611	0.9908756481864628
0.010991365398954147	3.1895328325878835e-24	4.606827061995256e9	3.687529142170077e26	1366.5778420420493	1382.5795726013978	6.283174861911611	0.9908756481864628
0.011033002376028651	3.336486211125035e-24	4.606827061995256e9	3.687529142170077e26	1366.5778420420493	1382.5795726013978	6.283174861911611	0.9908756481864628
0.011074797080355138	3.485110376022222e-24	4.606827061995256e9	3.687529142170077e26	1366.5778420420493	1382.5795726013978	6.283174861911611	0.9908756481864628
0.01111675010942866	3.6354246009813095e-24	4.606827061995256e9	3.687529142170077e26	1366.5778420420493	1382.5795726013978	6.283174861911611	0.9908756481864628
0.011158862063007542	3.787448382166721e-24	4.606827061995256e9	3.687529142170077e26	1366.5778420420493	1382.5795726013978	6.283174861911611	0.9908756481864628
0.011201133543122263	3.941201440767733e-24	4.606827061995256e9	3.687529142170077e26	1366.5778420420493	1382.5795726013978	6.283174861911611	0.9908756481864628
0.011243565154083701	4.09670372558767e-24	4.606827061995256e9	3.687529142170077e26	1366.5778420420493	1382.5795726013978	6.283174861911611	0.9908756481864628
0.011286157502492148	4.253975415665641e-24	4.606827061995256e9	3.687529142170077e26	1366.5778420420493	1382.5795726013978	6.283174861911611	0.9908756481864628
0.011328911197245599	4.4130369229254714e-24	4.606827061995256e9	3.687529142170077e26	1366.5778420420493	1382.5795726013978	6.283174861911611	0.9908756481864628
0.011371826849548785	4.573908894857815e-24	4.606827061995256e9	3.687529142170077e26	1366.5778420420493	1382.5795726013978	6.283174861911611	0.9908756481864628
0.011414905072921786	4.736612217231217e-24	4.606827061995256e9	3.687529142170077e26	1366.5778420420493	1382.5795726013978	6.283174861911611	0.9908756481864628
0.01145814648320864	4.901168016834319e-24	4.606827061995256e9	3.687529142170077e26	1366.5778420420493	1382.5795726013978	6.283174861911611	0.9908756481864628
0.011501551698586484	5.0675976642512865e-24	4.606827061995256e9	3.687529142170077e26	1366.5778420420493	1382.5795726013978	6.283174861911611	0.9908756481864628
0.011545121339574022	5.2359227766665356e-24	4.606827061995256e9	3.687529142170077e26	1366.5778420420493	1382.5795726013978	6.283174861911611	0.9908756481864628
0.011588856029040764	5.406165220704394e-24	4.606827061995256e9	3.687529142170077e26	1366.5778420420493	1382.5795726013978	6.283174861911611	0.9908756481864628
0.011632756392215553	5.578347115298548e-24	4.606827061995256e9	3.687529142170077e26	1366.5778420420493	1382.5795726013978	6.283174861911611	0.9908756481864628
0.011676823056695844	5.752490834597171e-24	4.606827061995256e9	3.687529142170077e26	1366.5778420420493	1382.5795726013978	6.283174861911611	0.9908756481864628
0.01172105665245652	5.92861901089949e-24	4.606827061995256e9	3.687529142170077e26	1366.5778420420493	1382.5795726013978	6.283174861911611	0.9908756481864628
0.011765457811858766	6.106754537626162e-24	4.606827061995256e9	3.687529142170077e26	1366.5778420420493	1382.5795726013978	6.283174861911611	0.9908756481864628
0.011810027169659442	6.286920572325527e-24	4.606827061995256e9	3.687529142170077e26	1366.5778420420493	1382.5795726013978	6.283174861911611	0.9908756481864628
0.011854765363019767	6.4691405397115896e-24	4.606827061995256e9	3.687529142170077e26	1366.5778420420493	1382.5795726013978	6.283174861911611	0.9908756481864628
0.01189967303151482	6.65343813473992e-24	4.606827061995256e9	3.687529142170077e26	1366.5778420420493	1382.5795726013978	6.283174861911611	0.9908756481864628
0.011944750817142294	6.839837325715726e-24	4.606827061995256e9	3.687529142170077e26	1366.5778420420493	1382.5795726013978	6.283174861911611	0.9908756481864628
0.011989999364332014	7.028362357440608e-24	4.606827061995256e9	3.687529142170077e26	1366.5778420420493	1382.5795726013978	6.283174861911611	0.9908756481864628
0.012035419319955002	7.21903775439341e-24	4.606827061995256e9	3.687529142170077e26	1366.5778420420493	1382.5795726013978	6.283174861911611	0.9908756481864628
0.012081011333332585	7.411888323947545e-24	4.606827061995256e9	3.687529142170077e26	1366.5778420420493	1382.5795726013978	6.283174861911611	0.9908756481864628
0.01212677605624601	7.606939159627346e-24	4.606827061995256e9	3.687529142170077e26	1366.5778420420493	1382.5795726013978	6.283174861911611	0.9908756481864628
0.012172714142945377	7.804215644398661e-24	4.606827061995256e9	3.687529142170077e26	1366.5778420420493	1382.5795726013978	6.283174861911611	0.9908756481864628
0.012218826250159331	8.003743454000306e-24	4.606827061995256e9	3.687529142170077e26	1366.5778420420493	1382.5795726013978	6.283174861911611	0.9908756481864628
0.012265113037104309	8.20554856031176e-24	4.606827061995256e9	3.687529142170077e26	1366.5778420420493	1382.5795726013978	6.283174861911611	0.9908756481864628
0.01231157516549381	8.409657234759386e-24	4.606827061995256e9	3.687529142170077e26	1366.5778420420493	1382.5795726013978	6.283174861911611	0.9908756481864628
0.012358213299548206	8.616096051763933e-24	4.606827061995256e9	3.687529142170077e26	1366.5778420420493	1382.5795726013978	6.283174861911611	0.9908756481864628
0.012405028106003834	8.824891892224373e-24	4.606827061995256e9	3.687529142170077e26	1366.5778420420493	1382.5795726013978	6.283174861911611	0.9908756481864628
0.012452020254122936	9.036071947045178e-24	4.606827061995256e9	3.687529142170077e26	1366.5778420420493	1382.5795726013978	6.283174861911611	0.9908756481864628
0.012499190415702818	9.249663720700596e-24	4.606827061995256e9	3.687529142170077e26	1366.5778420420493	1382.5795726013978	6.283174861911611	0.9908756481864628
0.012546539265085808	9.465695034843054e-24	4.606827061995256e9	3.687529142170077e26	1366.5778420420493	1382.5795726013978	6.283174861911611	0.9908756481864628
0.01259406747916875	9.684194031950908e-24	4.606827061995256e9	3.687529142170077e26	1366.5778420420493	1382.5795726013978	6.283174861911611	0.9908756481864628
0.012641775737412516	9.905189179017811e-24	4.606827061995256e9	3.687529142170077e26	1366.5778420420493	1382.5795726013978	6.283174861911611	0.9908756481864628
0.012689664721852097	1.0128709271286986e-23	4.606827061995256e9	3.687529142170077e26	1366.5778420420493	1382.5795726013978	6.283174861911611	0.9908756481864628
0.012737735117105917	1.0354783436024498e-23	4.606827061995256e9	3.687529142170077e26	1366.5778420420493	1382.5795726013978	6.283174861911611	0.9908756481864628
0.01278598761038606	1.058344113634006e-23	4.606827061995256e9	3.687529142170077e26	1366.5778420420493	1382.5795726013978	6.283174861911611	0.9908756481864628
0.01283442289150766	1.081471217504736e-23	4.606827061995256e9	3.687529142170077e26	1366.5778420420493	1382.5795726013978	6.283174861911611	0.9908756481864628
0.01288304165289913	1.104862669857267e-23	4.606827061995256e9	3.687529142170077e26	1366.5778420420493	1382.5795726013978	6.283174861911611	0.9908756481864628
0.012931844589611913	1.1285215200905701e-23	4.606827061995256e9	3.687529142170077e26	1366.5778420420493	1382.5795726013978	6.283174861911611	0.9908756481864628
0.012980832399330256	1.1524508527595814e-23	4.606827061995256e9	3.687529142170077e26	1366.5778420420493	1382.5795726013978	6.283174861911611	0.9908756481864628
0.013030005782381546	1.1766537879796516e-23	4.606827061995256e9	3.687529142170077e26	1366.5778420420493	1382.5795726013978	6.283174861911611	0.9908756481864628
0.013079365441745915	1.2011334818352723e-23	4.606827061995256e9	3.687529142170077e26	1366.5778420420493	1382.5795726013978	6.283174861911611	0.9908756481864628
0.013128912083066697	1.2258931267938822e-23	4.606827061995256e9	3.687529142170077e26	1366.5778420420493	1382.5795726013978	6.283174861911611	0.9908756481864628
0.0131786464146601	1.2509359521240126e-23	4.606827061995256e9	3.687529142170077e26	1366.5778420420493	1382.5795726013978	6.283174861911611	0.9908756481864628
0.0132285691475257	1.2762652243186315e-23	4.606827061995256e9	3.687529142170077e26	1366.5778420420493	1382.5795726013978	6.283174861911611	0.9908756481864628
0.01327868099535646	1.301884247523072e-23	4.606827061995256e9	3.687529142170077e26	1366.5778420420493	1382.5795726013978	6.283174861911611	0.9908756481864628
0.01332898267454874	1.327796363967856e-23	4.606827061995256e9	3.687529142170077e26	1366.5778420420493	1382.5795726013978	6.283174861911611	0.9908756481864628
0.013379474904212948	1.3540046903530437e-23	4.606827061995256e9	3.687529142170077e26	1366.5778420420493	1382.5795726013978	6.283174861911611	0.9908756481864628
0.013430158406183381	1.3805120138932206e-23	4.606827061995256e9	3.687529142170077e26	1366.5778420420493	1382.5795726013978	6.283174861911611	0.9908756481864628
0.013481033905028961	1.4073217214382243e-23	4.606827061995256e9	3.687529142170077e26	1366.5778420420493	1382.5795726013978	6.283174861911611	0.9908756481864628
0.013532102128063174	1.4344372624530563e-23	4.606827061995256e9	3.687529142170077e26	1366.5778420420493	1382.5795726013978	6.283174861911611	0.9908756481864628
0.013583363805354845	1.4618621257528e-23	4.606827061995256e9	3.687529142170077e26	1366.5778420420493	1382.5795726013978	6.283174861911611	0.9908756481864628
0.013634819669738413	1.4895998399514232e-23	4.606827061995256e9	3.687529142170077e26	1366.5778420420493	1382.5795726013978	6.283174861911611	0.9908756481864628
0.01368647045682424	1.517653973915694e-23	4.606827061995256e9	3.687529142170077e26	1366.5778420420493	1382.5795726013978	6.283174861911611	0.9908756481864628
0.013738316905009516	1.5460281372245805e-23	4.606827061995256e9	3.687529142170077e26	1366.5778420420493	1382.5795726013978	6.283174861911611	0.9908756481864628
0.013790359755488365	1.5747259806334336e-23	4.606827061995256e9	3.687529142170077e26	1366.5778420420493	1382.5795726013978	6.283174861911611	0.9908756481864628
0.01384259975226284	1.603751196543923e-23	4.606827061995256e9	3.687529142170077e26	1366.5778420420493	1382.5795726013978	6.283174861911611	0.9908756481864628
0.013895037642153388	1.6331075194790322e-23	4.606827061995256e9	3.687529142170077e26	1366.5778420420493	1382.5795726013978	6.283174861911611	0.9908756481864628
0.013947674174809356	1.6627987265634593e-23	4.606827061995256e9	3.687529142170077e26	1366.5778420420493	1382.5795726013978	6.283174861911611	0.9908756481864628
0.014000510102720102	1.6928286380098215e-23	4.606827061995256e9	3.687529142170077e26	1366.5778420420493	1382.5795726013978	6.283174861911611	0.9908756481864628
0.01405354618122531	1.7232011176099367e-23	4.606827061995256e9	3.687529142170077e26	1366.5778420420493	1382.5795726013978	6.283174861911611	0.9908756481864628
0.014106783168526222	1.7539200732322e-23	4.606827061995256e9	3.687529142170077e26	1366.5778420420493	1382.5795726013978	6.283174861911611	0.9908756481864628
0.014160221825696042	1.7849894573241396e-23	4.606827061995256e9	3.687529142170077e26	1366.5778420420493	1382.5795726013978	6.283174861911611	0.9908756481864628
0.014213862916691208	1.8164132674211835e-23	4.606827061995256e9	3.687529142170077e26	1366.5778420420493	1382.5795726013978	6.283174861911611	0.9908756481864628
0.01426770720836214	1.8481955466609038e-23	4.606827061995256e9	3.687529142170077e26	1366.5778420420493	1382.5795726013978	6.283174861911611	0.9908756481864628
0.014321755470464029	1.8803403843031205e-23	4.606827061995256e9	3.687529142170077e26	1366.5778420420493	1382.5795726013978	6.283174861911611	0.9908756481864628
0.014376008475668256	1.912851916256291e-23	4.606827061995256e9	3.687529142170077e26	1366.5778420420493	1382.5795726013978	6.283174861911611	0.9908756481864628
0.01443046699957296	1.945734325609372e-23	4.606827061995256e9	3.687529142170077e26	1366.5778420420493	1382.5795726013978	6.283174861911611	0.9908756481864628
0.014485131820714602	1.978991843170323e-23	4.606827061995256e9	3.687529142170077e26	1366.5778420420493	1382.5795726013978	6.283174861911611	0.9908756481864628
0.014540003720578624	2.0126287480101733e-23	4.606827061995256e9	3.687529142170077e26	1366.5778420420493	1382.5795726013978	6.283174861911611	0.9908756481864628
0.014595083483611028	2.046649368013837e-23	4.606827061995256e9	3.687529142170077e26	1366.5778420420493	1382.5795726013978	6.283174861911611	0.9908756481864628
0.01465037189722942	2.0810580804368586e-23	4.606827061995256e9	3.687529142170077e26	1366.5778420420493	1382.5795726013978	6.283174861911611	0.9908756481864628
0.014705869751834086	2.115859312468496e-23	4.606827061995256e9	3.687529142170077e26	1366.5778420420493	1382.5795726013978	6.283174861911611	0.9908756481864628
0.014761577840819707	2.1510575418016033e-23	4.606827061995256e9	3.687529142170077e26	1366.5778420420493	1382.5795726013978	6.283174861911611	0.9908756481864628
0.014817496960586232	2.186657297208456e-23	4.606827061995256e9	3.687529142170077e26	1366.5778420420493	1382.5795726013978	6.283174861911611	0.9908756481864628
0.014873627910550724	2.2226631591237405e-23	4.606827061995256e9	3.687529142170077e26	1366.5778420420493	1382.5795726013978	6.283174861911611	0.9908756481864628
0.014929971493158325	2.2590797602335963e-23	4.606827061995256e9	3.687529142170077e26	1366.5778420420493	1382.5795726013978	6.283174861911611	0.9908756481864628
0.014986528513894148	2.2959117860719457e-23	4.606827061995256e9	3.687529142170077e26	1366.5778420420493	1382.5795726013978	6.283174861911611	0.9908756481864628
0.0150432997812946	2.33316397562324e-23	4.606827061995256e9	3.687529142170077e26	1366.5778420420493	1382.5795726013978	6.283174861911611	0.9908756481864628
0.015100286106958767	2.370841121932084e-23	4.606827061995256e9	3.687529142170077e26	1366.5778420420493	1382.5795726013978	6.283174861911611	0.9908756481864628
0.015157488305560447	2.4089480727202122e-23	4.606827061995256e9	3.687529142170077e26	1366.5778420420493	1382.5795726013978	6.283174861911611	0.9908756481864628
0.01521490719485929	2.4474897310098842e-23	4.606827061995256e9	3.687529142170077e26	1366.5778420420493	1382.5795726013978	6.283174861911611	0.9908756481864628
0.015272543595713005	2.4864710557550827e-23	4.606827061995256e9	3.687529142170077e26	1366.5778420420493	1382.5795726013978	6.283174861911611	0.9908756481864628
0.015330398332088577	2.525897062479199e-23	4.606827061995256e9	3.687529142170077e26	1366.5778420420493	1382.5795726013978	6.283174861911611	0.9908756481864628
0.015388472231074498	2.5657728239206628e-23	4.606827061995256e9	3.687529142170077e26	1366.5778420420493	1382.5795726013978	6.283174861911611	0.9908756481864628
0.015446766122892393	2.6061034706854947e-23	4.606827061995256e9	3.687529142170077e26	1366.5778420420493	1382.5795726013978	6.283174861911611	0.9908756481864628
0.01550528084090871	2.646894191907305e-23	4.606827061995256e9	3.687529142170077e26	1366.5778420420493	1382.5795726013978	6.283174861911611	0.9908756481864628
0.015564017221647066	2.6881502359152565e-23	4.606827061995256e9	3.687529142170077e26	1366.5778420420493	1382.5795726013978	6.283174861911611	0.9908756481864628
0.015622976104799707	2.729876910908986e-23	4.606827061995256e9	3.687529142170077e26	1366.5778420420493	1382.5795726013978	6.283174861911611	0.9908756481864628
0.015682158333240014	2.772079585641943e-23	4.606827061995256e9	3.687529142170077e26	1366.5778420420493	1382.5795726013978	6.283174861911611	0.9908756481864628
0.015741564753034048	2.8147636901117987e-23	4.606827061995256e9	3.687529142170077e26	1366.5778420420493	1382.5795726013978	6.283174861911611	0.9908756481864628
0.015801196213453085	2.8579347162593997e-23	4.606827061995256e9	3.687529142170077e26	1366.5778420420493	1382.5795726013978	6.283174861911611	0.9908756481864628
0.01586105356698558	2.901598218675279e-23	4.606827061995256e9	3.687529142170077e26	1366.5778420420493	1382.5795726013978	6.283174861911611	0.9908756481864628
0.01592113766934914	2.945759815314163e-23	4.606827061995256e9	3.687529142170077e26	1366.5778420420493	1382.5795726013978	6.283174861911611	0.9908756481864628
0.015981449379503233	2.990425188218163e-23	4.606827061995256e9	3.687529142170077e26	1366.5778420420493	1382.5795726013978	6.283174861911611	0.9908756481864628
