r[m]	M[Msun]	rho[g/cm^3]	P[N/m^2]	n_e[pm^-3]	n_p[pm^-3]	muF_e[MeV]	B
0.009999999999999993	-9.117205786541334e-39	2.636178870175745e9	1.749036726610284e26	782.4945283786275	791.519155512896	5.137972791030789	0.9924525711300097
0.010038189070932771	6.44257052199368e-26	2.636178870175745e9	1.749036726610284e26	782.4945283786275	791.519155512896	5.137972791030789	0.9924525711300097
0.010076523982379458	1.301186497848587e-25	2.636178870175745e9	1.749036726610284e26	782.4945283786275	791.519155512896	5.137972791030789	0.9924525711300097
0.010115005291291349	1.961370249742829e-25	2.636178870175745e9	1.749036726610284e26	782.4945283786275	791.519155512896	5.137972791030789	0.9924525711300097
0.010153633556746844	2.627067125129057e-25	2.636178870175745e9	1.749036726610284e26	782.4945283786275	791.519155512896	5.137972791030789	0.9924525711300097
0.010192409339959246	3.3066854920726806e-25	2.636178870175745e9	1.749036726610284e26	782.4945283786275	791.519155512896	5.137972791030789	0.9924525711300097
0.010231333204285247	3.990564230732484e-25	2.636178870175745e9	1.749036726610284e26	782.4945283786275	791.519155512896	5.137972791030789	0.9924525711300097
0.010270405715232779	4.674669956700171e-25	2.636178870175745e9	1.749036726610284e26	782.4945283786275	791.519155512896	5.137972791030789	0.9924525711300097
0.010309627440469564	5.36641847159135e-25	2.636178870175745e9	1.749036726610284e26	782.4945283786275	791.519155512896	5.137972791030789	0.9924525711300097
0.010348998949831021	6.066146915335573e-25	2.636178870175745e9	1.749036726610284e26	782.4945283786275	791.519155512896	5.137972791030789	0.9924525711300097
0.010388520815328896	6.773926612616081e-25	2.636178870175745e9	1.749036726610284e26	782.4945283786275	791.519155512896	5.137972791030789	0.9924525711300097
0.010428193611159218	7.489829473096211e-25	2.636178870175745e9	1.749036726610284e26	782.4945283786275	791.519155512896	5.137972791030789	0.9924525711300097
0.010468017913710947	8.213927996051286e-25	2.636178870175745e9	1.749036726610284e26	782.4945283786275	791.519155512896	5.137972791030789	0.9924525711300097
0.010507994301574218	8.946332479143151e-25	2.636178870175745e9	1.749036726610284e26	782.4945283786275	791.519155512896	5.137972791030789	0.9924525711300097
0.01054812335554862	9.687203836162425e-25	2.636178870175745e9	1.749036726610284e26	782.4945283786275	791.519155512896	5.137972791030789	0.9924525711300097
0.010588405658651935	1.043662133183797e-24	2.636178870175745e9	1.749036726610284e26	782.4945283786275	791.519155512896	5.137972791030789	0.9924525711300097
0.010628841796128262	1.1194661350459305e-24	2.636178870175745e9	1.749036726610284e26	782.4945283786275	791.519155512896	5.137972791030789	0.9924525711300097
0.010669432355456867	1.1961400902796072e-24	2.636178870175745e9	1.749036726610284e26	782.4945283786275	791.519155512896	5.137972791030789	0.9924525711300097
0.010710177926360365	1.27369176310457e-24	2.636178870175745e9	1.749036726610284e26	782.4945283786275	791.519155512896	5.137972791030789	0.9924525711300097
0.010751079100813653	1.3521338443059899e-24	2.636178870175745e9	1.749036726610284e26	782.4945283786275	791.519155512896	5.137972791030789	0.9924525711300097
0.010792136473052138	1.4314826193287993e-24	2.636178870175745e9	1.749036726610284e26	782.4945283786275	791.519155512896	5.137972791030789	0.9924525711300097
0.010833350639580743	1.5117463380323234e-24	2.636178870175745e9	1.749036726610284e26	782.4945283786275	791.519155512896	5.137972791030789	0.9924525711300097
0.0108747221991822	1.5929331771421332e-24	2.636178870175745e9	1.749036726610284e26	782.4945283786275	791.519155512896	5.137972791030789	0.9924525711300097
0.010916251752926081	1.675051380443666e-24	2.636178870175745e9	1.749036726610284e26	782.4945283786275	791.519155512896	5.137972791030789	0.9924525711300097
0.01095793990417738	1.7581092692485086e-24	2.636178870175745e9	1.749036726610284e26	782.4945283786275	791.519155512896	5.137972791030789	0.9924525711300097
0.010999787258605152	1.842117734673784e-24	2.636178870175745e9	1.749036726610284e26	782.4945283786275	791.519155512896	5.137972791030789	0.9924525711300097
0.01104179442419163	1.9270889881570362e-24	2.636178870175745e9	1.749036726610284e26	782.4945283786275	791.519155512896	5.137972791030789	0.9924525711300097
0.011083962011240688	2.0130342265935534e-24	2.636178870175745e9	1.749036726610284e26	782.4945283786275	791.519155512896	5.137972791030789	0.9924525711300097
0.01112629063238708	2.0999647771733833e-24	2.636178870175745e9	1.749036726610284e26	782.4945283786275	791.519155512896	5.137972791030789	0.9924525711300097
0.011168780902604971	2.187892098892897e-24	2.636178870175745e9	1.749036726610284e26	782.4945283786275	791.519155512896	5.137972791030789	0.9924525711300097
0.01121143343921724	2.2768277840853307e-24	2.636178870175745e9	1.749036726610284e26	782.4945283786275	791.519155512896	5.137972791030789	0.9924525711300097
0.011254248861904077	2.3667835599675623e-24	2.636178870175745e9	1.749036726610284e26	782.4945283786275	791.519155512896	5.137972791030789	0.9924525711300097
0.011297227792712312	2.4577712902062177e-24	2.636178870175745e9	1.749036726610284e26	782.4945283786275	791.519155512896	5.137972791030789	0.9924525711300097
0.011340370856064323	2.5498029765009432e-24	2.636178870175745e9	1.749036726610284e26	782.4945283786275	791.519155512896	5.137972791030789	0.9924525711300097
0.011383678678766945	2.6428907601859598e-24	2.636178870175745e9	1.749036726610284e26	782.4945283786275	791.519155512896	5.137972791030789	0.9924525711300097
0.011427151890020928	2.7370469238512317e-24	2.636178870175745e9	1.749036726610284e26	782.4945283786275	791.519155512896	5.137972791030789	0.9924525711300097
0.01147079112142969	2.8322838929808038e-24	2.636178870175745e9	1.749036726610284e26	782.4945283786275	791.519155512896	5.137972791030789	0.9924525711300097
0.01151459700700887	2.9286142376117967e-24	2.636178870175745e9	1.749036726610284e26	782.4945283786275	791.519155512896	5.137972791030789	0.9924525711300097
0.011558570183195171	3.0260506740109214e-24	2.636178870175745e9	1.749036726610284e26	782.4945283786275	791.519155512896	5.137972791030789	0.9924525711300097
0.011602711288855969	3.1246060663720478e-24	2.636178870175745e9	1.749036726610284e26	782.4945283786275	791.519155512896	5.137972791030789	0.9924525711300097
0.011647020965298233	3.224293428531803e-24	2.636178870175745e9	1.749036726610284e26	782.4945283786275	791.519155512896	5.137972791030789	0.9924525711300097
0.01169149985627821	3.325125925706636e-24	2.636178870175745e9	1.749036726610284e26	782.4945283786275	791.519155512896	5.137972791030789	0.9924525711300097
0.011736148608010406	3.4271168762483515e-24	2.636178870175745e9	1.749036726610284e26	782.4945283786275	791.519155512896	5.137972791030789	0.9924525711300097
0.011780967869177298	3.530279753421513e-24	2.636178870175745e9	1.749036726610284e26	782.4945283786275	791.519155512896	5.137972791030789	0.9924525711300097
0.011825958290938623	3.634628187200385e-24	2.636178870175745e9	1.749036726610284e26	782.4945283786275	791.519155512896	5.137972791030789	0.9924525711300097
0.011871120526940695	3.740175966086613e-24	2.636178870175745e9	1.749036726610284e26	782.4945283786275	791.519155512896	5.137972791030789	0.9924525711300097
0.011916455233326231	3.846937038949101e-24	2.636178870175745e9	1.749036726610284e26	782.4945283786275	791.519155512896	5.137972791030789	0.9924525711300097
0.011961963068743506	3.954925516883456e-24	2.636178870175745e9	1.749036726610284e26	782.4945283786275	791.519155512896	5.137972791030789	0.9924525711300097
0.012007644694356303	4.064155675094783e-24	2.636178870175745e9	1.749036726610284e26	782.4945283786275	791.519155512896	5.137972791030789	0.9924525711300097
0.012053500773853138	4.174641954800432e-24	2.636178870175745e9	1.749036726610284e26	782.4945283786275	791.519155512896	5.137972791030789	0.9924525711300097
0.012099531973457284	4.286398965156606e-24	2.636178870175745e9	1.749036726610284e26	782.4945283786275	791.519155512896	5.137972791030789	0.9924525711300097
0.012145738961936058	4.3994414852053805e-24	2.636178870175745e9	1.749036726610284e26	782.4945283786275	791.519155512896	5.137972791030789	0.9924525711300097
0.012192122410610944	4.5137844658461835e-24	2.636178870175745e9	1.749036726610284e26	782.4945283786275	791.519155512896	5.137972791030789	0.9924525711300097
0.012238682993366936	4.629443031828124e-24	2.636178870175745e9	1.749036726610284e26	782.4945283786275	791.519155512896	5.137972791030789	0.9924525711300097
0.01228542138666268	4.746432483767203e-24	2.636178870175745e9	1.749036726610284e26	782.4945283786275	791.519155512896	5.137972791030789	0.9924525711300097
0.012332338269540163	4.864768300185673e-24	2.636178870175745e9	1.749036726610284e26	782.4945283786275	791.519155512896	5.137972791030789	0.9924525711300097
0.012379434323634409	4.984466139574908e-24	2.636178870175745e9	1.749036726610284e26	782.4945283786275	791.519155512896	5.137972791030789	0.9924525711300097
0.01242671023318375	5.105541842483496e-24	2.636178870175745e9	1.749036726610284e26	782.4945283786275	791.519155512896	5.137972791030789	0.9924525711300097
0.01247416668503936	5.228011433627509e-24	2.636178870175745e9	1.749036726610284e26	782.4945283786275	791.519155512896	5.137972791030789	0.9924525711300097
0.012521804368675638	5.351891124027283e-24	2.636178870175745e9	1.749036726610284e26	782.4945283786275	791.519155512896	5.137972791030789	0.9924525711300097
0.012569623976199809	5.477197313166782e-24	2.636178870175745e9	1.749036726610284e26	782.4945283786275	791.519155512896	5.137972791030789	0.9924525711300097
0.012617626202362401	5.603946591180126e-24	2.636178870175745e9	1.749036726610284e26	782.4945283786275	791.519155512896	5.137972791030789	0.9924525711300097
0.012665811744566928	5.7321557410612325e-24	2.636178870175745e9	1.749036726610284e26	782.4945283786275	791.519155512896	5.137972791030789	0.9924525711300097
0.012714181302880425	5.861841740901171e-24	2.636178870175745e9	1.749036726610284e26	782.4945283786275	791.519155512896	5.137972791030789	0.9924525711300097
0.012762735580043214	5.993021766149235e-24	2.636178870175745e9	1.749036726610284e26	782.4945283786275	791.519155512896	5.137972791030789	0.9924525711300097
0.012811475281479467	6.125713191902222e-24	2.636178870175745e9	1.749036726610284e26	782.4945283786275	791.519155512896	5.137972791030789	0.9924525711300097
0.012860401115307313	6.259933595218835e-24	2.636178870175745e9	1.749036726610284e26	782.4945283786275	791.519155512896	5.137972791030789	0.9924525711300097
0.012909513792348955	6.395700757460779e-24	2.636178870175745e9	1.749036726610284e26	782.4945283786275	791.519155512896	5.137972791030789	0.9924525711300097
0.012958814026141375	6.5330326666624636e-24	2.636178870175745e9	1.749036726610284e26	782.4945283786275	791.519155512896	5.137972791030789	0.9924525711300097
0.013008302532946272	6.671947519925837e-24	2.636178870175745e9	1.749036726610284e26	782.4945283786275	791.519155512896	5.137972791030789	0.9924525711300097
0.013057980031760895	6.81246372584536e-24	2.636178870175745e9	1.749036726610284e26	782.4945283786275	791.519155512896	5.137972791030789	0.9924525711300097
0.013107847244328064	6.95459990695859e-24	2.636178870175745e9	1.749036726610284e26	782.4945283786275	791.519155512896	5.137972791030789	0.9924525711300097
0.013157904895147083	7.098374902227531e-24	2.636178870175745e9	1.749036726610284e26	782.4945283786275	791.519155512896	5.137972791030789	0.9924525711300097
0.013208153711483832	7.243807769546243e-24	2.636178870175745e9	1.749036726610284e26	782.4945283786275	791.519155512896	5.137972791030789	0.9924525711300097
0.013258594423381717	7.390917788279774e-24	2.636178870175745e9	1.749036726610284e26	782.4945283786275	791.519155512896	5.137972791030789	0.9924525711300097
0.013309227763672117	7.539724461830898e-24	2.636178870175745e9	1.749036726610284e26	782.4945283786275	791.519155512896	5.137972791030789	0.9924525711300097
0.013360054467984852	7.69024718821369e-24	2.636178870175745e9	1.749036726610284e26	782.4945283786275	791.519155512896	5.137972791030789	0.9924525711300097
0.013411075274759269	7.842502064027823e-24	2.636178870175745e9	1.749036726610284e26	782.4945283786275	791.519155512896	5.137972791030789	0.9924525711300097
0.013462290925254528	7.996507951476149e-24	2.636178870175745e9	1.749036726610284e26	782.4945283786275	791.519155512896	5.137972791030789	0.9924525711300097
0.013513702163560804	8.152284988119297e-24	2.636178870175745e9	1.749036726610284e26	782.4945283786275	791.519155512896	5.137972791030789	0.9924525711300097
0.013565309736609667	8.309853543109837e-24	2.636178870175745e9	1.749036726610284e26	782.4945283786275	791.519155512896	5.137972791030789	0.9924525711300097
0.01361711439418537	8.469234219857058e-24	2.636178870175745e9	1.749036726610284e26	782.4945283786275	791.519155512896	5.137972791030789	0.9924525711300097
0.013669116888935297	8.630447858719658e-24	2.636178870175745e9	1.749036726610284e26	782.4945283786275	791.519155512896	5.137972791030789	0.9924525711300097
0.01372131797638135	8.793515539732188e-24	2.636178870175745e9	1.749036726610284e26	782.4945283786275	791.519155512896	5.137972791030789	0.9924525711300097
0.01377371841493047	8.958458585360042e-24	2.636178870175745e9	1.749036726610284e26	782.4945283786275	791.519155512896	5.137972791030789	0.9924525711300097
0.013826318965886056	9.125298563288787e-24	2.636178870175745e9	1.749036726610284e26	782.4945283786275	791.519155512896	5.137972791030789	0.9924525711300097
0.013879120393458854	9.294057289243793e-24	2.636178870175745e9	1.749036726610284e26	782.4945283786275	791.519155512896	5.137972791030789	0.9924525711300097
0.013932123464777887	9.464756829842252e-24	2.636178870175745e9	1.749036726610284e26	782.4945283786275	791.519155512896	5.137972791030789	0.9924525711300097
0.013985328949902006	9.637419505479888e-24	2.636178870175745e9	1.749036726610284e26	782.4945283786275	791.519155512896	5.137972791030789	0.9924525711300097
0.014038737621830607	9.812067893248013e-24	2.636178870175745e9	1.749036726610284e26	782.4945283786275	791.519155512896	5.137972791030789	0.9924525711300097
0.014092350256515338	9.988724829887217e-24	2.636178870175745e9	1.749036726610284e26	782.4945283786275	791.519155512896	5.137972791030789	0.9924525711300097
0.014146167632870897	1.016741341477191e-23	2.636178870175745e9	1.749036726610284e26	782.4945283786275	791.519155512896	5.137972791030789	0.9924525711300097
0.01420019053278682	1.034815701293231e-23	2.636178870175745e9	1.749036726610284e26	782.4945283786275	791.519155512896	5.137972791030789	0.9924525711300097
0.014254419741138372	1.0530979258108055e-23	2.636178870175745e9	1.749036726610284e26	782.4945283786275	791.519155512896	5.137972791030789	0.9924525711300097
0.014308856045798422	1.0715904055840112e-23	2.636178870175745e9	1.749036726610284e26	782.4945283786275	791.519155512896	5.137972791030789	0.9924525711300097
0.01436350023764841	1.090295558659497e-23	2.636178870175745e9	1.749036726610284e26	782.4945283786275	791.519155512896	5.137972791030789	0.9924525711300097
0.01441835311059026	1.109215830892793e-23	2.636178870175745e9	1.749036726610284e26	782.4945283786275	791.519155512896	5.137972791030789	0.9924525711300097
0.014473415461557733	1.1283536962680594e-23	2.636178870175745e9	1.749036726610284e26	782.4945283786275	791.519155512896	5.137972791030789	0.9924525711300097
0.01452868809052783	1.1477116572215232e-23	2.636178870175745e9	1.749036726610284e26	782.4945283786275	791.519155512896	5.137972791030789	0.9924525711300097
0.014584171800532826	1.1672922449688341e-23	2.636178870175745e9	1.749036726610284e26	782.4945283786275	791.519155512896	5.137972791030789	0.9924525711300097
0.014639867397671459	1.1870980198358769e-23	2.636178870175745e9	1.749036726610284e26	782.4945283786275	791.519155512896	5.137972791030789	0.9924525711300097
0.01469577569112113	1.2071315715937252e-23	2.636178870175745e9	1.749036726610284e26	782.4945283786275	791.519155512896	5.137972791030789	0.9924525711300097
0.01475189749314917	1.2273955197971032e-23	2.636178870175745e9	1.749036726610284e26	782.4945283786275	791.519155512896	5.137972791030789	0.9924525711300097
0.01480823361912512	1.2478925141270854e-23	2.636178870175745e9	1.749036726610284e26	782.4945283786275	791.519155512896	5.137972791030789	0.9924525711300097
0.01486478488753211	1.2686252347373992e-23	2.636178870175745e9	1.749036726610284e26	782.4945283786275	791.519155512896	5.137972791030789	0.9924525711300097
0.014921552119979215	1.2895963926050409e-23	2.636178870175745e9	1.749036726610284e26	782.4945283786275	791.519155512896	5.137972791030789	0.9924525711300097
0.014978536141212915	1.3108087298845877e-23	2.636178870175745e9	1.749036726610284e26	782.4945283786275	791.519155512896	5.137972791030789	0.9924525711300097
0.015035737779129508	1.3322650202669144e-23	2.636178870175745e9	1.749036726610284e26	782.4945283786275	791.519155512896	5.137972791030789	0.9924525711300097
0.015093157864786952	1.3539680693418108e-23	2.636178870175745e9	1.749036726610284e26	782.4945283786275	791.519155512896	5.137972791030789	0.9924525711300097
0.015150797232416743	1.3759207149647587e-23	2.636178870175745e9	1.749036726610284e26	782.4945283786275	791.519155512896	5.137972791030789	0.9924525711300097
0.015208656719436492	1.39812582762818e-23	2.636178870175745e9	1.749036726610284e26	782.4945283786275	791.519155512896	5.137972791030789	0.9924525711300097
0.015266737166461574	1.4205863108365792e-23	2.636178870175745e9	1.749036726610284e26	782.4945283786275	791.519155512896	5.137972791030789	0.9924525711300097
0.015325039417317842	1.443305101486395e-23	2.636178870175745e9	1.749036726610284e26	782.4945283786275	791.519155512896	5.137972791030789	0.9924525711300097
0.015383564319053395	1.466285170249833e-23	2.636178870175745e9	1.749036726610284e26	782.4945283786275	791.519155512896	5.137972791030789	0.9924525711300097
0.015442312721951384	1.4895295219634992e-23	2.636178870175745e9	1.749036726610284e26	782.4945283786275	791.519155512896	5.137972791030789	0.9924525711300097
0.015501285479541854	1.5130411960211108e-23	2.636178870175745e9	1.749036726610284e26	782.4945283786275	791.519155512896	5.137972791030789	0.9924525711300097
0.015560483448614599	1.5368232667710972e-23	2.636178870175745e9	1.749036726610284e26	782.4945283786275	791.519155512896	5.137972791030789	0.9924525711300097
0.015619907489231408	1.5608788439185216e-23	2.636178870175745e9	1.749036726610284e26	782.4945283786275	791.519155512896	5.137972791030789	0.9924525711300097
0.015679558464738372	1.5852110729316207e-23	2.636178870175745e9	1.749036726610284e26	782.4945283786275	791.519155512896	5.137972791030789	0.9924525711300097
0.015739437241778887	1.6098231354532884e-23	2.636178870175745e9	1.749036726610284e26	782.4945283786275	791.519155512896	5.137972791030789	0.9924525711300097
0.015799544690305718	1.63471824971689e-23	2.636178870175745e9	1.749036726610284e26	782.4945283786275	791.519155512896	5.137972791030789	0.9924525711300097
0.015859881683594146	1.659899670967278e-23	2.636178870175745e9	1.749036726610284e26	782.4945283786275	791.519155512896	5.137972791030789	0.9924525711300097
0.01592044909825417	1.685370691886243e-23	2.636178870175745e9	1.749036726610284e26	782.4945283786275	791.519155512896	5.137972791030789	0.9924525711300097
0.01598124781424372	1.7111346430232623e-23	2.636178870175745e9	1.749036726610284e26	782.4945283786275	791.519155512896	5.137972791030789	0.9924525711300097
0.016042278714880964	1.7371948932307862e-23	2.636178870175745e9	1.749036726610284e26	782.4945283786275	791.519155512896	5.137972791030789	0.9924525711300097
0.016103542686857625	1.7635548501049634e-23	2.636178870175745e9	1.749036726610284e26	782.4945283786275	791.519155512896	5.137972791030789	0.9924525711300097
0.016165040620251363	1.790217960430986e-23	2.636178870175745e9	1.749036726610284e26	782.4945283786275	791.519155512896	5.137972791030789	0.9924525711300097
