r[m]	M[Msun]	rho[g/cm^3]	P[N/m^2]	n_e[pm^-3]	n_p[pm^-3]	muF_e[MeV]	B
0.009999999999999993	-3.4155903684092903e-39	9.897583862497703e8	4.695389885304848e25	293.39844888717784	223.2077428036412	3.5777934087349976	0.9946326006131258
0.010038705869384124	2.4552116554107125e-26	9.897583862497703e8	4.695389885304848e25	293.39844888717784	223.2077428036412	3.5777934087349976	0.9946326006131258
0.010077561553200694	4.9776276750749703e-26	9.897583862497703e8	4.695389885304848e25	293.39844888717784	223.2077428036412	3.5777934087349976	0.9946326006131258
0.01011656763131957	7.54918335001583e-26	9.897583862497703e8	4.695389885304848e25	293.39844888717784	223.2077428036412	3.5777934087349976	0.9946326006131258
0.010155724685854928	1.0151383094938442e-25	9.897583862497703e8	4.695389885304848e25	293.39844888717784	223.2077428036412	3.5777934087349976	0.9946326006131258
0.010195033301174078	1.2765293430076893e-25	9.897583862497703e8	4.695389885304848e25	293.39844888717784	223.2077428036412	3.5777934087349976	0.9946326006131258
0.01023449406390629	1.5371535864642831e-25	9.897583862497703e8	4.695389885304848e25	293.39844888717784	223.2077428036412	3.5777934087349976	0.9946326006131258
0.010274107562951272	1.799864784896696e-25	9.897583862497703e8	4.695389885304848e25	293.39844888717784	223.2077428036412	3.5777934087349976	0.9946326006131258
0.010313874389488283	2.069879742454727e-25	9.897583862497703e8	4.695389885304848e25	293.39844888717784	223.2077428036412	3.5777934087349976	0.9946326006131258
0.01035379513698467	2.3452837206076004e-25	9.897583862497703e8	4.695389885304848e25	293.39844888717784	223.2077428036412	3.5777934087349976	0.9946326006131258
0.010393870401204848	2.6240473759374216e-25	9.897583862497703e8	4.695389885304848e25	293.39844888717784	223.2077428036412	3.5777934087349976	0.9946326006131258
0.010434100780219311	2.9040933171313853e-25	9.897583862497703e8	4.695389885304848e25	293.39844888717784	223.2077428036412	3.5777934087349976	0.9946326006131258
0.010474486874413314	3.1832953241025185e-25	9.897583862497703e8	4.695389885304848e25	293.39844888717784	223.2077428036412	3.5777934087349976	0.9946326006131258
0.010515029286495958	3.4652640722725454e-25	9.897583862497703e8	4.695389885304848e25	293.39844888717784	223.2077428036412	3.5777934087349976	0.9946326006131258
0.0105557286215093	3.7561033603913745e-25	9.897583862497703e8	4.695389885304848e25	293.39844888717784	223.2077428036412	3.5777934087349976	0.9946326006131258
0.010596585486837106	4.0547983661507315e-25	9.897583862497703e8	4.695389885304848e25	293.39844888717784	223.2077428036412	3.5777934087349976	0.9946326006131258
0.010637600492214237	4.3602761096952125e-25	9.897583862497703e8	4.695389885304848e25	293.39844888717784	223.2077428036412	3.5777934087349976	0.9946326006131258
0.01067877424973546	4.671437429691994e-25	9.897583862497703e8	4.695389885304848e25	293.39844888717784	223.2077428036412	3.5777934087349976	0.9946326006131258
0.010720107373864706	4.987156554117226e-25	9.897583862497703e8	4.695389885304848e25	293.39844888717784	223.2077428036412	3.5777934087349976	0.9946326006131258
0.010761600481444374	5.306280665007777e-25	9.897583862497703e8	4.695389885304848e25	293.39844888717784	223.2077428036412	3.5777934087349976	0.9946326006131258
0.010803254191704274	5.627629457096663e-25	9.897583862497703e8	4.695389885304848e25	293.39844888717784	223.2077428036412	3.5777934087349976	0.9946326006131258
0.010845069126270998	5.949994690258434e-25	9.897583862497703e8	4.695389885304848e25	293.39844888717784	223.2077428036412	3.5777934087349976	0.9946326006131258
0.01088704590917733	6.272139735681167e-25	9.897583862497703e8	4.695389885304848e25	293.39844888717784	223.2077428036412	3.5777934087349976	0.9946326006131258
0.010929185166871299	6.592799115680228e-25	9.897583862497703e8	4.695389885304848e25	293.39844888717784	223.2077428036412	3.5777934087349976	0.9946326006131258
0.010971487528225644	6.911845781768939e-25	9.897583862497703e8	4.695389885304848e25	293.39844888717784	223.2077428036412	3.5777934087349976	0.9946326006131258
0.011013953624547358	7.238966979376159e-25	9.897583862497703e8	4.695389885304848e25	293.39844888717784	223.2077428036412	3.5777934087349976	0.9946326006131258
0.011056584089586775	7.575617836318825e-25	9.897583862497703e8	4.695389885304848e25	293.39844888717784	223.2077428036412	3.5777934087349976	0.9946326006131258
0.011099379559547397	7.920528152169073e-25	9.897583862497703e8	4.695389885304848e25	293.39844888717784	223.2077428036412	3.5777934087349976	0.9946326006131258
0.011142340673095072	8.272396688609133e-25	9.897583862497703e8	4.695389885304848e25	293.39844888717784	223.2077428036412	3.5777934087349976	0.9946326006131258
0.011185468071367659	8.62989066037939e-25	9.897583862497703e8	4.695389885304848e25	293.39844888717784	223.2077428036412	3.5777934087349976	0.9946326006131258
0.011228762397984733	8.991645219067896e-25	9.897583862497703e8	4.695389885304848e25	293.39844888717784	223.2077428036412	3.5777934087349976	0.9946326006131258
0.011272224299056917	9.356262929644469e-25	9.897583862497703e8	4.695389885304848e25	293.39844888717784	223.2077428036412	3.5777934087349976	0.9946326006131258
0.011315854423195666	9.72231323965199e-25	9.897583862497703e8	4.695389885304848e25	293.39844888717784	223.2077428036412	3.5777934087349976	0.9946326006131258
0.011359653421523072	1.0088331940955356e-24	9.897583862497703e8	4.695389885304848e25	293.39844888717784	223.2077428036412	3.5777934087349976	0.9946326006131258
0.011403621947681322	1.0452820623948608e-24	9.897583862497703e8	4.695389885304848e25	293.39844888717784	223.2077428036412	3.5777934087349976	0.9946326006131258
0.011447760657842572	1.0814817579616318e-24	9.897583862497703e8	4.695389885304848e25	293.39844888717784	223.2077428036412	3.5777934087349976	0.9946326006131258
0.011492070210718899	1.1179835241010097e-24	9.897583862497703e8	4.695389885304848e25	293.39844888717784	223.2077428036412	3.5777934087349976	0.9946326006131258
0.011536551267571788	1.1549678569964016e-24	9.897583862497703e8	4.695389885304848e25	293.39844888717784	223.2077428036412	3.5777934087349976	0.9946326006131258
0.011581204492222384	1.192439271512278e-24	9.897583862497703e8	4.695389885304848e25	293.39844888717784	223.2077428036412	3.5777934087349976	0.9946326006131258
0.011626030551061074	1.2304023205190865e-24	9.897583862497703e8	4.695389885304848e25	293.39844888717784	223.2077428036412	3.5777934087349976	0.9946326006131258
0.011671030113057557	1.2688615951996995e-24	9.897583862497703e8	4.695389885304848e25	293.39844888717784	223.2077428036412	3.5777934087349976	0.9946326006131258
0.011716203849770984	1.3078217253583186e-24	9.897583862497703e8	4.695389885304848e25	293.39844888717784	223.2077428036412	3.5777934087349976	0.9946326006131258
0.011761552435359696	1.3472873797314386e-24	9.897583862497703e8	4.695389885304848e25	293.39844888717784	223.2077428036412	3.5777934087349976	0.9946326006131258
0.01180707654659141	1.3872632663016215e-24	9.897583862497703e8	4.695389885304848e25	293.39844888717784	223.2077428036412	3.5777934087349976	0.9946326006131258
0.011852776862853494	1.4277541326137904e-24	9.897583862497703e8	4.695389885304848e25	293.39844888717784	223.2077428036412	3.5777934087349976	0.9946326006131258
0.011898654066162733	1.4687647660935495e-24	9.897583862497703e8	4.695389885304848e25	293.39844888717784	223.2077428036412	3.5777934087349976	0.9946326006131258
0.011944708841175919	1.5102999943687023e-24	9.897583862497703e8	4.695389885304848e25	293.39844888717784	223.2077428036412	3.5777934087349976	0.9946326006131258
0.011990941875199723	1.552364685592647e-24	9.897583862497703e8	4.695389885304848e25	293.39844888717784	223.2077428036412	3.5777934087349976	0.9946326006131258
0.012037353858201096	1.5949637487707467e-24	9.897583862497703e8	4.695389885304848e25	293.39844888717784	223.2077428036412	3.5777934087349976	0.9946326006131258
0.012083945482817706	1.6381021340892942e-24	9.897583862497703e8	4.695389885304848e25	293.39844888717784	223.2077428036412	3.5777934087349976	0.9946326006131258
0.012130717444367996	1.681784833246683e-24	9.897583862497703e8	4.695389885304848e25	293.39844888717784	223.2077428036412	3.5777934087349976	0.9946326006131258
0.012177670440861701	1.726016879787575e-24	9.897583862497703e8	4.695389885304848e25	293.39844888717784	223.2077428036412	3.5777934087349976	0.9946326006131258
0.012224805173010401	1.770803349439713e-24	9.897583862497703e8	4.695389885304848e25	293.39844888717784	223.2077428036412	3.5777934087349976	0.9946326006131258
0.012272122344237702	1.8161493604529957e-24	9.897583862497703e8	4.695389885304848e25	293.39844888717784	223.2077428036412	3.5777934087349976	0.9946326006131258
0.012319622660689866	1.8620600739416196e-24	9.897583862497703e8	4.695389885304848e25	293.39844888717784	223.2077428036412	3.5777934087349976	0.9946326006131258
0.01236730683124651	1.9085406942289645e-24	9.897583862497703e8	4.695389885304848e25	293.39844888717784	223.2077428036412	3.5777934087349976	0.9946326006131258
0.012415175567530834	1.955596469194668e-24	9.897583862497703e8	4.695389885304848e25	293.39844888717784	223.2077428036412	3.5777934087349976	0.9946326006131258
0.012463229583920626	2.003232690625213e-24	9.897583862497703e8	4.695389885304848e25	293.39844888717784	223.2077428036412	3.5777934087349976	0.9946326006131258
0.012511469597558594	2.0514546945665213e-24	9.897583862497703e8	4.695389885304848e25	293.39844888717784	223.2077428036412	3.5777934087349976	0.9946326006131258
0.012559896328363206	2.100267861679841e-24	9.897583862497703e8	4.695389885304848e25	293.39844888717784	223.2077428036412	3.5777934087349976	0.9946326006131258
0.012608510499039592	2.149677617600432e-24	9.897583862497703e8	4.695389885304848e25	293.39844888717784	223.2077428036412	3.5777934087349976	0.9946326006131258
0.012657312835090022	2.1996894332986212e-24	9.897583862497703e8	4.695389885304848e25	293.39844888717784	223.2077428036412	3.5777934087349976	0.9946326006131258
0.01270630406482488	2.2503088254441832e-24	9.897583862497703e8	4.695389885304848e25	293.39844888717784	223.2077428036412	3.5777934087349976	0.9946326006131258
0.012755484919373698	2.3015413567735906e-24	9.897583862497703e8	4.695389885304848e25	293.39844888717784	223.2077428036412	3.5777934087349976	0.9946326006131258
0.012804856132695752	2.353392636459683e-24	9.897583862497703e8	4.695389885304848e25	293.39844888717784	223.2077428036412	3.5777934087349976	0.9946326006131258
0.012854418441591173	2.405868320484729e-24	9.897583862497703e8	4.695389885304848e25	293.39844888717784	223.2077428036412	3.5777934087349976	0.9946326006131258
0.012904172585712094	2.458974112016448e-24	9.897583862497703e8	4.695389885304848e25	293.39844888717784	223.2077428036412	3.5777934087349976	0.9946326006131258
0.012954119307573328	2.5127157617864267e-24	9.897583862497703e8	4.695389885304848e25	293.39844888717784	223.2077428036412	3.5777934087349976	0.9946326006131258
0.013004259352563868	2.567099068472387e-24	9.897583862497703e8	4.695389885304848e25	293.39844888717784	223.2077428036412	3.5777934087349976	0.9946326006131258
0.013054593468957638	2.6221298790825808e-24	9.897583862497703e8	4.695389885304848e25	293.39844888717784	223.2077428036412	3.5777934087349976	0.9946326006131258
0.013105122407924828	2.67781408934382e-24	9.897583862497703e8	4.695389885304848e25	293.39844888717784	223.2077428036412	3.5777934087349976	0.9946326006131258
0.01315584692354325	2.734157644092556e-24	9.897583862497703e8	4.695389885304848e25	293.39844888717784	223.2077428036412	3.5777934087349976	0.9946326006131258
0.01320676777280928	2.791166537668511e-24	9.897583862497703e8	4.695389885304848e25	293.39844888717784	223.2077428036412	3.5777934087349976	0.9946326006131258
0.013257885715649318	2.848846814311955e-24	9.897583862497703e8	4.695389885304848e25	293.39844888717784	223.2077428036412	3.5777934087349976	0.9946326006131258
0.013309201514931283	2.9072045685641087e-24	9.897583862497703e8	4.695389885304848e25	293.39844888717784	223.2077428036412	3.5777934087349976	0.9946326006131258
0.013360715936475632	2.9662459456701134e-24	9.897583862497703e8	4.695389885304848e25	293.39844888717784	223.2077428036412	3.5777934087349976	0.9946326006131258
0.013412429749067204	3.0259771419860518e-24	9.897583862497703e8	4.695389885304848e25	293.39844888717784	223.2077428036412	3.5777934087349976	0.9946326006131258
0.013464343724466329	3.0864044053883146e-24	9.897583862497703e8	4.695389885304848e25	293.39844888717784	223.2077428036412	3.5777934087349976	0.9946326006131258
0.013516458637420499	3.147534035686754e-24	9.897583862497703e8	4.695389885304848e25	293.39844888717784	223.2077428036412	3.5777934087349976	0.9946326006131258
0.0135687752656761	3.209372385041142e-24	9.897583862497703e8	4.695389885304848e25	293.39844888717784	223.2077428036412	3.5777934087349976	0.9946326006131258
0.013621294389989692	3.27192585838032e-24	9.897583862497703e8	4.695389885304848e25	293.39844888717784	223.2077428036412	3.5777934087349976	0.9946326006131258
0.013674016794139812	3.3352009138252074e-24	9.897583862497703e8	4.695389885304848e25	293.39844888717784	223.2077428036412	3.5777934087349976	0.9946326006131258
0.013726943264938852	3.399204063115193e-24	9.897583862497703e8	4.695389885304848e25	293.39844888717784	223.2077428036412	3.5777934087349976	0.9946326006131258
0.013780074592244465	3.463941872037253e-24	9.897583862497703e8	4.695389885304848e25	293.39844888717784	223.2077428036412	3.5777934087349976	0.9946326006131258
0.013833411568971509	3.5294209608590634e-24	9.897583862497703e8	4.695389885304848e25	293.39844888717784	223.2077428036412	3.5777934087349976	0.9946326006131258
0.013886954991104065	3.5956480047655245e-24	9.897583862497703e8	4.695389885304848e25	293.39844888717784	223.2077428036412	3.5777934087349976	0.9946326006131258
0.013940705657706907	3.662629734298046e-24	9.897583862497703e8	4.695389885304848e25	293.39844888717784	223.2077428036412	3.5777934087349976	0.9946326006131258
0.01399466437093789	3.730372935798326e-24	9.897583862497703e8	4.695389885304848e25	293.39844888717784	223.2077428036412	3.5777934087349976	0.9946326006131258
0.01404883193605952	3.7988844518545745e-24	9.897583862497703e8	4.695389885304848e25	293.39844888717784	223.2077428036412	3.5777934087349976	0.9946326006131258
0.014103209161451137	3.8681711817519494e-24	9.897583862497703e8	4.695389885304848e25	293.39844888717784	223.2077428036412	3.5777934087349976	0.9946326006131258
0.01415779685862116	3.938240081926569e-24	9.897583862497703e8	4.695389885304848e25	293.39844888717784	223.2077428036412	3.5777934087349976	0.9946326006131258
0.014212595842218846	4.0090981664224236e-24	9.897583862497703e8	4.695389885304848e25	293.39844888717784	223.2077428036412	3.5777934087349976	0.9946326006131258
0.014267606930046627	4.080752507352548e-24	9.897583862497703e8	4.695389885304848e25	293.39844888717784	223.2077428036412	3.5777934087349976	0.9946326006131258
0.014322830943072481	4.1532102353638425e-24	9.897583862497703e8	4.695389885304848e25	293.39844888717784	223.2077428036412	3.5777934087349976	0.9946326006131258
0.014378268705441836	4.226478540104844e-24	9.897583862497703e8	4.695389885304848e25	293.39844888717784	223.2077428036412	3.5777934087349976	0.9946326006131258
0.014433921044490056	4.300564670697916e-24	9.897583862497703e8	4.695389885304848e25	293.39844888717784	223.2077428036412	3.5777934087349976	0.9946326006131258
0.014489788790754948	4.375475936215104e-24	9.897583862497703e8	4.695389885304848e25	293.39844888717784	223.2077428036412	3.5777934087349976	0.9946326006131258
0.014545872777988751	4.451219706156981e-24	9.897583862497703e8	4.695389885304848e25	293.39844888717784	223.2077428036412	3.5777934087349976	0.9946326006131258
0.014602173843171055	4.527803410936463e-24	9.897583862497703e8	4.695389885304848e25	293.39844888717784	223.2077428036412	3.5777934087349976	0.9946326006131258
0.014658692826520872	4.605234542365205e-24	9.897583862497703e8	4.695389885304848e25	293.39844888717784	223.2077428036412	3.5777934087349976	0.9946326006131258
0.014715430571509355	4.683520654144646e-24	9.897583862497703e8	4.695389885304848e25	293.39844888717784	223.2077428036412	3.5777934087349976	0.9946326006131258
0.014772387924872565	4.762669362360925e-24	9.897583862497703e8	4.695389885304848e25	293.39844888717784	223.2077428036412	3.5777934087349976	0.9946326006131258
0.01482956573662375	4.842688345982949e-24	9.897583862497703e8	4.695389885304848e25	293.39844888717784	223.2077428036412	3.5777934087349976	0.9946326006131258
0.014886964860066207	4.9235853473651185e-24	9.897583862497703e8	4.695389885304848e25	293.39844888717784	223.2077428036412	3.5777934087349976	0.9946326006131258
0.014944586151806195	5.0053681727540105e-24	9.897583862497703e8	4.695389885304848e25	293.39844888717784	223.2077428036412	3.5777934087349976	0.9946326006131258
0.015002430471765306	5.088044692798223e-24	9.897583862497703e8	4.695389885304848e25	293.39844888717784	223.2077428036412	3.5777934087349976	0.9946326006131258
0.015060498683193773	5.171622843063491e-24	9.897583862497703e8	4.695389885304848e25	293.39844888717784	223.2077428036412	3.5777934087349976	0.9946326006131258
0.015118791652682933	5.256110624550578e-24	9.897583862497703e8	4.695389885304848e25	293.39844888717784	223.2077428036412	3.5777934087349976	0.9946326006131258
0.015177310250178336	5.34151610421808e-24	9.897583862497703e8	4.695389885304848e25	293.39844888717784	223.2077428036412	3.5777934087349976	0.9946326006131258
0.015236055348992921	5.427847415509396e-24	9.897583862497703e8	4.695389885304848e25	293.39844888717784	223.2077428036412	3.5777934087349976	0.9946326006131258
0.015295027825819676	5.515112758883006e-24	9.897583862497703e8	4.695389885304848e25	293.39844888717784	223.2077428036412	3.5777934087349976	0.9946326006131258
0.015354228560744896	5.603320402347716e-24	9.897583862497703e8	4.695389885304848e25	293.39844888717784	223.2077428036412	3.5777934087349976	0.9946326006131258
0.015413658437261528	5.6924786820021785e-24	9.897583862497703e8	4.695389885304848e25	293.39844888717784	223.2077428036412	3.5777934087349976	0.9946326006131258
0.015473318342281954	5.782596002577753e-24	9.897583862497703e8	4.695389885304848e25	293.39844888717784	223.2077428036412	3.5777934087349976	0.9946326006131258
0.015533209166151437	5.873680837986514e-24	9.897583862497703e8	4.695389885304848e25	293.39844888717784	223.2077428036412	3.5777934087349976	0.9946326006131258
0.015593331802661585	5.965741731873577e-24	9.897583862497703e8	4.695389885304848e25	293.39844888717784	223.2077428036412	3.5777934087349976	0.9946326006131258
0.015653687149063244	6.058787298172774e-24	9.897583862497703e8	4.695389885304848e25	293.39844888717784	223.2077428036412	3.5777934087349976	0.9946326006131258
0.015714276106080418	6.152826221668215e-24	9.897583862497703e8	4.695389885304848e25	293.39844888717784	223.2077428036412	3.5777934087349976	0.9946326006131258
0.01577509957792323	6.247867258558706e-24	9.897583862497703e8	4.695389885304848e25	293.39844888717784	223.2077428036412	3.5777934087349976	0.9946326006131258
0.015836158472301645	6.343919237027688e-24	9.897583862497703e8	4.695389885304848e25	293.39844888717784	223.2077428036412	3.5777934087349976	0.9946326006131258
0.015897453700439178	6.4409910578175886e-24	9.897583862497703e8	4.695389885304848e25	293.39844888717784	223.2077428036412	3.5777934087349976	0.9946326006131258
0.015958986177086125	6.53909169480782e-24	9.897583862497703e8	4.695389885304848e25	293.39844888717784	223.2077428036412	3.5777934087349976	0.9946326006131258
0.016020756820533406	6.638230195598223e-24	9.897583862497703e8	4.695389885304848e25	293.39844888717784	223.2077428036412	3.5777934087349976	0.9946326006131258
0.01608276655262646	6.738415682097113e-24	9.897583862497703e8	4.695389885304848e25	293.39844888717784	223.2077428036412	3.5777934087349976	0.9946326006131258
0.016145016298778604	6.839657351112953e-24	9.897583862497703e8	4.695389885304848e25	293.39844888717784	223.2077428036412	3.5777934087349976	0.9946326006131258
