r[m]	M[Msun]	rho[g/cm^3]	P[N/m^2]	n_e[pm^-3]	n_p[pm^-3]	muF_e[MeV]	B
0.010000000000000016	1.2021802320306714e-38	1.1556196390829785e9	5.794350706179372e25	343.14973192449185	347.1610887436628	3.7936129483882572	0.994320918221572
0.010038629014879476	2.860883804919209e-26	1.1556196390829785e9	5.794350706179372e25	343.14973192449185	347.1610887436628	3.7936129483882572	0.994320918221572
0.01007740724983795	5.799961366217099e-26	1.1556196390829785e9	5.794350706179372e25	343.14973192449185	347.1610887436628	3.7936129483882572	0.994320918221572
0.010116335281297989	8.796264291796647e-26	1.1556196390829785e9	5.794350706179372e25	343.14973192449185	347.1610887436628	3.7936129483882572	0.994320918221572
0.010155413687908633	1.1828325045384073e-25	1.1556196390829785e9	5.794350706179372e25	343.14973192449185	347.1610887436628	3.7936129483882572	0.994320918221572
0.010194643050554364	1.487416883260333e-25	1.1556196390829785e9	5.794350706179372e25	343.14973192449185	347.1610887436628	3.7936129483882572	0.994320918221572
0.010234023952363386	1.7911305373462747e-25	1.1556196390829785e9	5.794350706179372e25	343.14973192449185	347.1610887436628	3.7936129483882572	0.994320918221572
0.010273556978716649	2.0971559215091102e-25	1.1556196390829785e9	5.794350706179372e25	343.14973192449185	347.1610887436628	3.7936129483882572	0.994320918221572
0.010313242717256187	2.411686940026576e-25	1.1556196390829785e9	5.794350706179372e25	343.14973192449185	347.1610887436628	3.7936129483882572	0.994320918221572
0.010353081757894225	2.732519458112676e-25	1.1556196390829785e9	5.794350706179372e25	343.14973192449185	347.1610887436628	3.7936129483882572	0.994320918221572
0.010393074692821582	3.0572986908724217e-25	1.1556196390829785e9	5.794350706179372e25	343.14973192449185	347.1610887436628	3.7936129483882572	0.994320918221572
0.010433222116516816	3.383614205253128e-25	1.1556196390829785e9	5.794350706179372e25	343.14973192449185	347.1610887436628	3.7936129483882572	0.994320918221572
0.010473524625754736	3.7089990174158843e-25	1.1556196390829785e9	5.794350706179372e25	343.14973192449185	347.1610887436628	3.7936129483882572	0.994320918221572
0.010513982819615603	4.0373342936415974e-25	1.1556196390829785e9	5.794350706179372e25	343.14973192449185	347.1610887436628	3.7936129483882572	0.994320918221572
0.010554597299493694	4.375986692090092e-25	1.1556196390829785e9	5.794350706179372e25	343.14973192449185	347.1610887436628	3.7936129483882572	0.994320918221572
0.010595368669106578	4.72380654302167e-25	1.1556196390829785e9	5.794350706179372e25	343.14973192449185	347.1610887436628	3.7936129483882572	0.994320918221572
0.010636297534503765	5.079549152138706e-25	1.1556196390829785e9	5.794350706179372e25	343.14973192449185	347.1610887436628	3.7936129483882572	0.994320918221572
0.010677384504076034	5.441939508148747e-25	1.1556196390829785e9	5.794350706179372e25	343.14973192449185	347.1610887436628	3.7936129483882572	0.994320918221572
0.010718630188564159	5.809671786711005e-25	1.1556196390829785e9	5.794350706179372e25	343.14973192449185	347.1610887436628	3.7936129483882572	0.994320918221572
0.010760035201068307	6.1814088474279595e-25	1.1556196390829785e9	5.794350706179372e25	343.14973192449185	347.1610887436628	3.7936129483882572	0.994320918221572
0.01080160015705682	6.555781723779688e-25	1.1556196390829785e9	5.794350706179372e25	343.14973192449185	347.1610887436628	3.7936129483882572	0.994320918221572
0.010843325674375714	6.931389105921634e-25	1.1556196390829785e9	5.794350706179372e25	343.14973192449185	347.1610887436628	3.7936129483882572	0.994320918221572
0.0108852123732575	7.3067968162402095e-25	1.1556196390829785e9	5.794350706179372e25	343.14973192449185	347.1610887436628	3.7936129483882572	0.994320918221572
0.010927260876330764	7.680537277585489e-25	1.1556196390829785e9	5.794350706179372e25	343.14973192449185	347.1610887436628	3.7936129483882572	0.994320918221572
0.010969471808629071	8.0521842052522615e-25	1.1556196390829785e9	5.794350706179372e25	343.14973192449185	347.1610887436628	3.7936129483882572	0.994320918221572
0.011011845797600608	8.432814373228717e-25	1.1556196390829785e9	5.794350706179372e25	343.14973192449185	347.1610887436628	3.7936129483882572	0.994320918221572
0.011054383473117145	8.824594020910321e-25	1.1556196390829785e9	5.794350706179372e25	343.14973192449185	347.1610887436628	3.7936129483882572	0.994320918221572
0.011097085467483775	9.226050432724612e-25	1.1556196390829785e9	5.794350706179372e25	343.14973192449185	347.1610887436628	3.7936129483882572	0.994320918221572
0.011139952415447985	9.635674965316512e-25	1.1556196390829785e9	5.794350706179372e25	343.14973192449185	347.1610887436628	3.7936129483882572	0.994320918221572
0.01118298495420922	1.00519224594086e-24	1.1556196390829785e9	5.794350706179372e25	343.14973192449185	347.1610887436628	3.7936129483882572	0.994320918221572
0.011226183723428512	1.0473210643407167e-24	1.1556196390829785e9	5.794350706179372e25	343.14973192449185	347.1610887436628	3.7936129483882572	0.994320918221572
0.011269549365237655	1.0897919528641244e-24	1.1556196390829785e9	5.794350706179372e25	343.14973192449185	347.1610887436628	3.7936129483882572	0.994320918221572
0.011313082524249111	1.1324390796137737e-24	1.1556196390829785e9	5.794350706179372e25	343.14973192449185	347.1610887436628	3.7936129483882572	0.994320918221572
0.011356783847565244	1.1750927174808534e-24	1.1556196390829785e9	5.794350706179372e25	343.14973192449185	347.1610887436628	3.7936129483882572	0.994320918221572
0.011400653984788286	1.2175791810952516e-24	1.1556196390829785e9	5.794350706179372e25	343.14973192449185	347.1610887436628	3.7936129483882572	0.994320918221572
0.011444693588029634	1.2597652264681997e-24	1.1556196390829785e9	5.794350706179372e25	343.14973192449185	347.1610887436628	3.7936129483882572	0.994320918221572
0.011488903311919922	1.3022603413862634e-24	1.1556196390829785e9	5.794350706179372e25	343.14973192449185	347.1610887436628	3.7936129483882572	0.994320918221572
0.011533283813618359	1.3453162721708041e-24	1.1556196390829785e9	5.794350706179372e25	343.14973192449185	347.1610887436628	3.7936129483882572	0.994320918221572
0.011577835752822887	1.3889382556453506e-24	1.1556196390829785e9	5.794350706179372e25	343.14973192449185	347.1610887436628	3.7936129483882572	0.994320918221572
0.011622559791779613	1.4331315726300761e-24	1.1556196390829785e9	5.794350706179372e25	343.14973192449185	347.1610887436628	3.7936129483882572	0.994320918221572
0.011667456595293023	1.4779015482960811e-24	1.1556196390829785e9	5.794350706179372e25	343.14973192449185	347.1610887436628	3.7936129483882572	0.994320918221572
0.011712526830735478	1.5232535525217529e-24	1.1556196390829785e9	5.794350706179372e25	343.14973192449185	347.1610887436628	3.7936129483882572	0.994320918221572
0.011757771168057533	1.5691930002526898e-24	1.1556196390829785e9	5.794350706179372e25	343.14973192449185	347.1610887436628	3.7936129483882572	0.994320918221572
0.011803190279797504	1.6157253518636828e-24	1.1556196390829785e9	5.794350706179372e25	343.14973192449185	347.1610887436628	3.7936129483882572	0.994320918221572
0.011848784841091843	1.6628561135243233e-24	1.1556196390829785e9	5.794350706179372e25	343.14973192449185	347.1610887436628	3.7936129483882572	0.994320918221572
0.0118945555296848	1.710590837566743e-24	1.1556196390829785e9	5.794350706179372e25	343.14973192449185	347.1610887436628	3.7936129483882572	0.994320918221572
0.011940503025938876	1.7589351228570065e-24	1.1556196390829785e9	5.794350706179372e25	343.14973192449185	347.1610887436628	3.7936129483882572	0.994320918221572
0.011986628012844553	1.8078946151686448e-24	1.1556196390829785e9	5.794350706179372e25	343.14973192449185	347.1610887436628	3.7936129483882572	0.994320918221572
0.012032931176030826	1.857475007559954e-24	1.1556196390829785e9	5.794350706179372e25	343.14973192449185	347.1610887436628	3.7936129483882572	0.994320918221572
0.012079413203775017	1.9076820407534282e-24	1.1556196390829785e9	5.794350706179372e25	343.14973192449185	347.1610887436628	3.7936129483882572	0.994320918221572
0.012126074787013394	1.9585215035190384e-24	1.1556196390829785e9	5.794350706179372e25	343.14973192449185	347.1610887436628	3.7936129483882572	0.994320918221572
0.012172916619351045	2.0099992330596644e-24	1.1556196390829785e9	5.794350706179372e25	343.14973192449185	347.1610887436628	3.7936129483882572	0.994320918221572
0.012219939397072579	2.0621211154004252e-24	1.1556196390829785e9	5.794350706179372e25	343.14973192449185	347.1610887436628	3.7936129483882572	0.994320918221572
0.012267143819152141	2.1148930857802884e-24	1.1556196390829785e9	5.794350706179372e25	343.14973192449185	347.1610887436628	3.7936129483882572	0.994320918221572
0.012314530587263941	2.1683211290472687e-24	1.1556196390829785e9	5.794350706179372e25	343.14973192449185	347.1610887436628	3.7936129483882572	0.994320918221572
0.012362100405792841	2.222411280056791e-24	1.1556196390829785e9	5.794350706179372e25	343.14973192449185	347.1610887436628	3.7936129483882572	0.994320918221572
0.012409853981844465	2.277169624072585e-24	1.1556196390829785e9	5.794350706179372e25	343.14973192449185	347.1610887436628	3.7936129483882572	0.994320918221572
0.012457792025256126	2.332602297171627e-24	1.1556196390829785e9	5.794350706179372e25	343.14973192449185	347.1610887436628	3.7936129483882572	0.994320918221572
0.012505915248606957	2.388715486651317e-24	1.1556196390829785e9	5.794350706179372e25	343.14973192449185	347.1610887436628	3.7936129483882572	0.994320918221572
0.012554224367228929	2.4455154314408307e-24	1.1556196390829785e9	5.794350706179372e25	343.14973192449185	347.1610887436628	3.7936129483882572	0.994320918221572
0.012602720099217054	2.5030084225147356e-24	1.1556196390829785e9	5.794350706179372e25	343.14973192449185	347.1610887436628	3.7936129483882572	0.994320918221572
0.012651403165440488	2.5612008033108364e-24	1.1556196390829785e9	5.794350706179372e25	343.14973192449185	347.1610887436628	3.7936129483882572	0.994320918221572
0.012700274289552822	2.620098970150347e-24	1.1556196390829785e9	5.794350706179372e25	343.14973192449185	347.1610887436628	3.7936129483882572	0.994320918221572
0.012749334198003257	2.679709372662332e-24	1.1556196390829785e9	5.794350706179372e25	343.14973192449185	347.1610887436628	3.7936129483882572	0.994320918221572
0.012798583620046993	2.740038514210529e-24	1.1556196390829785e9	5.794350706179372e25	343.14973192449185	347.1610887436628	3.7936129483882572	0.994320918221572
0.012848023287756475	2.8010929523245e-24	1.1556196390829785e9	5.794350706179372e25	343.14973192449185	347.1610887436628	3.7936129483882572	0.994320918221572
0.012897653936031862	2.862879299133178e-24	1.1556196390829785e9	5.794350706179372e25	343.14973192449185	347.1610887436628	3.7936129483882572	0.994320918221572
0.012947476302612372	2.9254042218028736e-24	1.1556196390829785e9	5.794350706179372e25	343.14973192449185	347.1610887436628	3.7936129483882572	0.994320918221572
0.012997491128086826	2.9886744429776483e-24	1.1556196390829785e9	5.794350706179372e25	343.14973192449185	347.1610887436628	3.7936129483882572	0.994320918221572
0.013047699155905078	3.0526967412242445e-24	1.1556196390829785e9	5.794350706179372e25	343.14973192449185	347.1610887436628	3.7936129483882572	0.994320918221572
0.013098101132388644	3.117477951479428e-24	1.1556196390829785e9	5.794350706179372e25	343.14973192449185	347.1610887436628	3.7936129483882572	0.994320918221572
0.013148697806742214	3.1830249655019315e-24	1.1556196390829785e9	5.794350706179372e25	343.14973192449185	347.1610887436628	3.7936129483882572	0.994320918221572
0.013199489931064377	3.24934473232689e-24	1.1556196390829785e9	5.794350706179372e25	343.14973192449185	347.1610887436628	3.7936129483882572	0.994320918221572
0.013250478260359216	3.316444258724922e-24	1.1556196390829785e9	5.794350706179372e25	343.14973192449185	347.1610887436628	3.7936129483882572	0.994320918221572
0.0133016635525471	3.3843306096637124e-24	1.1556196390829785e9	5.794350706179372e25	343.14973192449185	347.1610887436628	3.7936129483882572	0.994320918221572
0.013353046568476391	3.453010908774382e-24	1.1556196390829785e9	5.794350706179372e25	343.14973192449185	347.1610887436628	3.7936129483882572	0.994320918221572
0.013404628071934318	3.5224923388203595e-24	1.1556196390829785e9	5.794350706179372e25	343.14973192449185	347.1610887436628	3.7936129483882572	0.994320918221572
0.013456408829658754	3.592782142171098e-24	1.1556196390829785e9	5.794350706179372e25	343.14973192449185	347.1610887436628	3.7936129483882572	0.994320918221572
0.0135083896113492	3.6638876212783715e-24	1.1556196390829785e9	5.794350706179372e25	343.14973192449185	347.1610887436628	3.7936129483882572	0.994320918221572
0.013560571189678634	3.735816139157457e-24	1.1556196390829785e9	5.794350706179372e25	343.14973192449185	347.1610887436628	3.7936129483882572	0.994320918221572
0.013612954340304642	3.8085751198710424e-24	1.1556196390829785e9	5.794350706179372e25	343.14973192449185	347.1610887436628	3.7936129483882572	0.994320918221572
0.013665539841881092	3.882172049017635e-24	1.1556196390829785e9	5.794350706179372e25	343.14973192449185	347.1610887436628	3.7936129483882572	0.994320918221572
0.01371832847606988	3.9566144742238415e-24	1.1556196390829785e9	5.794350706179372e25	343.14973192449185	347.1610887436628	3.7936129483882572	0.994320918221572
0.013771321027552167	4.031910005639761e-24	1.1556196390829785e9	5.794350706179372e25	343.14973192449185	347.1610887436628	3.7936129483882572	0.994320918221572
0.01382451828404048	4.108066316439402e-24	1.1556196390829785e9	5.794350706179372e25	343.14973192449185	347.1610887436628	3.7936129483882572	0.994320918221572
0.013877921036289981	4.1850911433238164e-24	1.1556196390829785e9	5.794350706179372e25	343.14973192449185	347.1610887436628	3.7936129483882572	0.994320918221572
0.013931530078110663	4.262992287029435e-24	1.1556196390829785e9	5.794350706179372e25	343.14973192449185	347.1610887436628	3.7936129483882572	0.994320918221572
0.013985346206378703	4.341777612839119e-24	1.1556196390829785e9	5.794350706179372e25	343.14973192449185	347.1610887436628	3.7936129483882572	0.994320918221572
0.014039370221048763	4.421455051098545e-24	1.1556196390829785e9	5.794350706179372e25	343.14973192449185	347.1610887436628	3.7936129483882572	0.994320918221572
0.014093602925165422	4.502032597735312e-24	1.155619639082978e9	5.7943507061793686e25	343.14973192449173	347.1610887436625	3.793612948388257	0.994320918221572
0.014148045124875563	4.583518314783463e-24	1.155619639082978e9	5.7943507061793686e25	343.14973192449173	347.1610887436625	3.793612948388257	0.994320918221572
0.014202697629439915	4.6659203309108155e-24	1.155619639082978e9	5.7943507061793686e25	343.14973192449173	347.1610887436625	3.793612948388257	0.994320918221572
0.014257561251245526	4.74924684195174e-24	1.155619639082978e9	5.7943507061793686e25	343.14973192449173	347.1610887436625	3.793612948388257	0.994320918221572
0.014312636805817385	4.8335061114428034e-24	1.155619639082978e9	5.7943507061793686e25	343.14973192449173	347.1610887436625	3.793612948388257	0.994320918221572
0.014367925111831008	4.918706471163994e-24	1.155619639082978e9	5.7943507061793686e25	343.14973192449173	347.1610887436625	3.793612948388257	0.994320918221572
0.014423426991124139	5.004856321682769e-24	1.155619639082978e9	5.7943507061793686e25	343.14973192449173	347.1610887436625	3.793612948388257	0.994320918221572
0.014479143268709435	5.09196413290384e-24	1.155619639082978e9	5.7943507061793686e25	343.14973192449173	347.1610887436625	3.793612948388257	0.994320918221572
0.014535074772786257	5.180038444621818e-24	1.155619639082978e9	5.7943507061793686e25	343.14973192449173	347.1610887436625	3.793612948388257	0.994320918221572
0.01459122233475346	5.269087867079651e-24	1.155619639082978e9	5.7943507061793686e25	343.14973192449173	347.1610887436625	3.793612948388257	0.994320918221572
0.01464758678922127	5.359121081529996e-24	1.155619639082978e9	5.7943507061793686e25	343.14973192449173	347.1610887436625	3.793612948388257	0.994320918221572
0.014704168974024172	5.450146840802468e-24	1.155619639082978e9	5.7943507061793686e25	343.14973192449173	347.1610887436625	3.793612948388257	0.994320918221572
0.01476096973023288	5.542173969873852e-24	1.155619639082978e9	5.7943507061793686e25	343.14973192449173	347.1610887436625	3.793612948388257	0.994320918221572
0.014817989902167322	5.635211366444325e-24	1.155619639082978e9	5.7943507061793686e25	343.14973192449173	347.1610887436625	3.793612948388257	0.994320918221572
0.014875230337408714	5.729268001516641e-24	1.155619639082978e9	5.7943507061793686e25	343.14973192449173	347.1610887436625	3.793612948388257	0.994320918221572
0.014932691886812628	5.824352919981438e-24	1.155619639082978e9	5.7943507061793686e25	343.14973192449173	347.1610887436625	3.793612948388257	0.994320918221572
0.014990375404521175	5.9204752412055695e-24	1.155619639082978e9	5.7943507061793686e25	343.14973192449173	347.1610887436625	3.793612948388257	0.994320918221572
0.01504828174797617	6.017644159626641e-24	1.155619639082978e9	5.7943507061793686e25	343.14973192449173	347.1610887436625	3.793612948388257	0.994320918221572
0.015106411777931459	6.115868945350713e-24	1.155619639082978e9	5.7943507061793686e25	343.14973192449173	347.1610887436625	3.793612948388257	0.994320918221572
0.015164766358465894	6.215158944755687e-24	1.155619639082978e9	5.7943507061793686e25	343.14973192449173	347.1610887436625	3.793612948388257	0.994320918221572
0.015223346356996367	6.3155235810994924e-24	1.155619639082978e9	5.7943507061793686e25	343.14973192449173	347.1610887436625	3.793612948388257	0.994320918221572
0.015282152644290264	6.416972355131933e-24	1.155619639082978e9	5.7943507061793686e25	343.14973192449173	347.1610887436625	3.793612948388257	0.994320918221572
0.01534118609447891	6.519514845712965e-24	1.155619639082978e9	5.7943507061793686e25	343.14973192449173	347.1610887436625	3.793612948388257	0.994320918221572
0.015400447585070066	6.623160710434122e-24	1.155619639082978e9	5.7943507061793686e25	343.14973192449173	347.1610887436625	3.793612948388257	0.994320918221572
0.015459937996961468	6.727919686246514e-24	1.155619639082978e9	5.7943507061793686e25	343.14973192449173	347.1610887436625	3.793612948388257	0.994320918221572
0.015519658214453422	6.833801590092038e-24	1.155619639082978e9	5.7943507061793686e25	343.14973192449173	347.1610887436625	3.793612948388257	0.994320918221572
0.015579609125262447	6.940816319541286e-24	1.155619639082978e9	5.7943507061793686e25	343.14973192449173	347.1610887436625	3.793612948388257	0.994320918221572
0.01563979162053398	7.048973853434728e-24	1.155619639082978e9	5.7943507061793686e25	343.14973192449173	347.1610887436625	3.793612948388257	0.994320918221572
0.015700206594856107	7.158284252530636e-24	1.155619639082978e9	5.7943507061793686e25	343.14973192449173	347.1610887436625	3.793612948388257	0.994320918221572
0.01576085494627237	7.268757660156361e-24	1.155619639082978e9	5.7943507061793686e25	343.14973192449173	347.1610887436625	3.793612948388257	0.994320918221572
0.015821737576295628	7.380404302866534e-24	1.155619639082978e9	5.7943507061793686e25	343.14973192449173	347.1610887436625	3.793612948388257	0.994320918221572
0.015882855389920927	7.493234491104541e-24	1.155619639082978e9	5.7943507061793686e25	343.14973192449173	347.1610887436625	3.793612948388257	0.994320918221572
0.015944209295639486	7.607258619871106e-24	1.155619639082978e9	5.7943507061793686e25	343.14973192449173	347.1610887436625	3.793612948388257	0.994320918221572
0.016005800205451667	7.722487169396189e-24	1.155619639082978e9	5.7943507061793686e25	343.14973192449173	347.1610887436625	3.793612948388257	0.994320918221572
0.016067629034881074	7.838930705818142e-24	1.155619639082978e9	5.7943507061793686e25	343.14973192449173	347.1610887436625	3.793612948388257	0.994320918221572
0.016129696702987615	7.956599881866143e-24	1.155619639082978e9	5.7943507061793686e25	343.14973192449173	347.1610887436625	3.793612948388257	0.994320918221572
