r[m]	M[Msun]	rho[g/cm^3]	P[N/m^2]	n_e[pm^-3]	n_p[pm^-3]	muF_e[MeV]	B
0.010000000000000009	6.85807514916826e-39	1.1845432052885766e9	6.036933243681902e25	353.8001553360703	1067.632612741437	3.837091044271737	0.9942241858181697
0.01003862885850271	2.932475660613176e-26	1.1845432052885766e9	6.036933243681902e25	353.8001553360703	1067.632612741437	3.837091044271737	0.9942241858181697
0.010077406935876334	5.945101062813643e-26	1.1845432052885766e9	6.036933243681902e25	353.8001553360703	1067.632612741437	3.837091044271737	0.9942241858181697
0.010116334808536343	9.016382746890933e-26	1.1845432052885766e9	6.036933243681902e25	353.8001553360703	1067.632612741437	3.837091044271737	0.9942241858181697
0.010155413055124832	1.212431561239295e-25	1.1845432052885766e9	6.036933243681902e25	353.8001553360703	1067.632612741437	3.837091044271737	0.9942241858181697
0.010194642256519164	1.524637460107101e-25	1.1845432052885766e9	6.036933243681902e25	353.8001553360703	1067.632612741437	3.837091044271737	0.9942241858181697
0.010234022995840437	1.8359506263431973e-25	1.1845432052885766e9	6.036933243681902e25	353.8001553360703	1067.632612741437	3.837091044271737	0.9942241858181697
0.010273555858462407	2.149634567760898e-25	1.1845432052885766e9	6.036933243681902e25	353.8001553360703	1067.632612741437	3.837091044271737	0.9942241858181697
0.010313241432020023	2.472036825063744e-25	1.1845432052885766e9	6.036933243681902e25	353.8001553360703	1067.632612741437	3.837091044271737	0.9942241858181697
0.010353080306418192	2.8008978710095954e-25	1.1845432052885766e9	6.036933243681902e25	353.8001553360703	1067.632612741437	3.837091044271737	0.9942241858181697
0.010393073073840563	3.133803953756842e-25	1.1845432052885766e9	6.036933243681902e25	353.8001553360703	1067.632612741437	3.837091044271737	0.9942241858181697
0.010433220328758324	3.4682842801179313e-25	1.1845432052885766e9	6.036933243681902e25	353.8001553360703	1067.632612741437	3.837091044271737	0.9942241858181697
0.010473522667939035	3.801810090339919e-25	1.1845432052885766e9	6.036933243681902e25	353.8001553360703	1067.632612741437	3.837091044271737	0.9942241858181697
0.010513980690455501	4.138362916241221e-25	1.1845432052885766e9	6.036933243681902e25	353.8001553360703	1067.632612741437	3.837091044271737	0.9942241858181697
0.010554594997694672	4.485490987666737e-25	1.1845432052885766e9	6.036933243681902e25	353.8001553360703	1067.632612741437	3.837091044271737	0.9942241858181697
0.010595366193366642	4.842015516369373e-25	1.1845432052885766e9	6.036933243681902e25	353.8001553360703	1067.632612741437	3.837091044271737	0.9942241858181697
0.010636294883513428	5.206660637262991e-25	1.1845432052885766e9	6.036933243681902e25	353.8001553360703	1067.632612741437	3.837091044271737	0.9942241858181697
0.010677381676518253	5.578119409264465e-25	1.1845432052885766e9	6.036933243681902e25	353.8001553360703	1067.632612741437	3.837091044271737	0.9942241858181697
0.010718627183114407	5.955053306825228e-25	1.1845432052885766e9	6.036933243681902e25	353.8001553360703	1067.632612741437	3.837091044271737	0.9942241858181697
0.01076003201639438	6.33609170432969e-25	1.1845432052885766e9	6.036933243681902e25	353.8001553360703	1067.632612741437	3.837091044271737	0.9942241858181697
0.010801596791818963	6.719831353265603e-25	1.1845432052885766e9	6.036933243681902e25	353.8001553360703	1067.632612741437	3.837091044271737	0.9942241858181697
0.010843322127226402	7.104835852072825e-25	1.1845432052885766e9	6.036933243681902e25	353.8001553360703	1067.632612741437	3.837091044271737	0.9942241858181697
0.010885208642841586	7.489635108575479e-25	1.1845432052885766e9	6.036933243681902e25	353.8001553360703	1067.632612741437	3.837091044271737	0.9942241858181697
0.010927256961285258	7.872724794900949e-25	1.1845432052885766e9	6.036933243681902e25	353.8001553360703	1067.632612741437	3.837091044271737	0.9942241858181697
0.010969467707583272	8.25367062145312e-25	1.1845432052885766e9	6.036933243681902e25	353.8001553360703	1067.632612741437	3.837091044271737	0.9942241858181697
0.011011841509175932	8.643828677732227e-25	1.1845432052885766e9	6.036933243681902e25	353.8001553360703	1067.632612741437	3.837091044271737	0.9942241858181697
0.011054378995927145	9.045414420831948e-25	1.1845432052885766e9	6.036933243681902e25	353.8001553360703	1067.632612741437	3.837091044271737	0.9942241858181697
0.011097080800134036	9.456918252560038e-25	1.1845432052885766e9	6.036933243681902e25	353.8001553360703	1067.632612741437	3.837091044271737	0.9942241858181697
0.011139947556536177	9.876793747491405e-25	1.1845432052885766e9	6.036933243681902e25	353.8001553360703	1067.632612741437	3.837091044271737	0.9942241858181697
0.011182979902325071	1.0303457050106857e-24	1.1845432052885766e9	6.036933243681902e25	353.8001553360703	1067.632612741437	3.837091044271737	0.9942241858181697
0.011226178477153615	1.0735286263470174e-24	1.1845432052885766e9	6.036933243681902e25	353.8001553360703	1067.632612741437	3.837091044271737	0.9942241858181697
0.011269543923145619	1.1170620829333834e-24	1.1845432052885766e9	6.036933243681902e25	353.8001553360703	1067.632612741437	3.837091044271737	0.9942241858181697
0.011313076884905335	1.1607760899561685e-24	1.1845432052885766e9	6.036933243681902e25	353.8001553360703	1067.632612741437	3.837091044271737	0.9942241858181697
0.011356778009527054	1.2044966698756471e-24	1.1845432052885766e9	6.036933243681902e25	353.8001553360703	1067.632612741437	3.837091044271737	0.9942241858181697
0.011400647946604761	1.248045787797779e-24	1.1845432052885766e9	6.036933243681902e25	353.8001553360703	1067.632612741437	3.837091044271737	0.9942241858181697
0.011444687348241611	1.291287056557816e-24	1.1845432052885766e9	6.036933243681902e25	353.8001553360703	1067.632612741437	3.837091044271737	0.9942241858181697
0.011488896869059899	1.3348455582432578e-24	1.1845432052885766e9	6.036933243681902e25	353.8001553360703	1067.632612741437	3.837091044271737	0.9942241858181697
0.011533277166210602	1.3789789043945815e-24	1.1845432052885766e9	6.036933243681902e25	353.8001553360703	1067.632612741437	3.837091044271737	0.9942241858181697
0.0115778288993832	1.4236924628043339e-24	1.1845432052885766e9	6.036933243681902e25	353.8001553360703	1067.632612741437	3.837091044271737	0.9942241858181697
0.011622552730815474	1.4689916463620211e-24	1.1845432052885766e9	6.036933243681902e25	353.8001553360703	1067.632612741437	3.837091044271737	0.9942241858181697
0.01166744932530336	1.5148819134168715e-24	1.1845432052885766e9	6.036933243681902e25	353.8001553360703	1067.632612741437	3.837091044271737	0.9942241858181697
0.011712519350210818	1.5613687681434744e-24	1.1845432052885766e9	6.036933243681902e25	353.8001553360703	1067.632612741437	3.837091044271737	0.9942241858181697
0.01175776347547976	1.6084577609103174e-24	1.1845432052885766e9	6.036933243681902e25	353.8001553360703	1067.632612741437	3.837091044271737	0.9942241858181697
0.011803182373640015	1.656154488651219e-24	1.1845432052885766e9	6.036933243681902e25	353.8001553360703	1067.632612741437	3.837091044271737	0.9942241858181697
0.011848776719819354	1.704464595239723e-24	1.1845432052885766e9	6.036933243681902e25	353.8001553360703	1067.632612741437	3.837091044271737	0.9942241858181697
0.011894547191753353	1.7533937718662293e-24	1.1845432052885766e9	6.036933243681902e25	353.8001553360703	1067.632612741437	3.837091044271737	0.9942241858181697
0.011940494469795747	1.802947757418572e-24	1.1845432052885766e9	6.036933243681902e25	353.8001553360703	1067.632612741437	3.837091044271737	0.9942241858181697
0.011986619236928349	1.8531323388651038e-24	1.1845432052885766e9	6.036933243681902e25	353.8001553360703	1067.632612741437	3.837091044271737	0.9942241858181697
0.012032922178771253	1.903953351641049e-24	1.1845432052885766e9	6.036933243681902e25	353.8001553360703	1067.632612741437	3.837091044271737	0.9942241858181697
0.01207940398359303	1.955416680037869e-24	1.1845432052885766e9	6.036933243681902e25	353.8001553360703	1067.632612741437	3.837091044271737	0.9942241858181697
0.012126065342320948	2.0075282575956592e-24	1.1845432052885766e9	6.036933243681902e25	353.8001553360703	1067.632612741437	3.837091044271737	0.9942241858181697
0.012172906948551249	2.0602940674986764e-24	1.1845432052885766e9	6.036933243681902e25	353.8001553360703	1067.632612741437	3.837091044271737	0.9942241858181697
0.012219929498559462	2.113720142973968e-24	1.1845432052885766e9	6.036933243681902e25	353.8001553360703	1067.632612741437	3.837091044271737	0.9942241858181697
0.012267133691310796	2.1678125676931927e-24	1.1845432052885766e9	6.036933243681902e25	353.8001553360703	1067.632612741437	3.837091044271737	0.9942241858181697
0.012314520228470332	2.222577476177319e-24	1.1845432052885766e9	6.036933243681902e25	353.8001553360703	1067.632612741437	3.837091044271737	0.9942241858181697
0.012362089814413755	2.2780210542051187e-24	1.1845432052885766e9	6.036933243681902e25	353.8001553360703	1067.632612741437	3.837091044271737	0.9942241858181697
0.01240984315623762	2.334149539224254e-24	1.1845432052885766e9	6.036933243681902e25	353.8001553360703	1067.632612741437	3.837091044271737	0.9942241858181697
0.012457780963769921	2.390969220765932e-24	1.1845432052885766e9	6.036933243681902e25	353.8001553360703	1067.632612741437	3.837091044271737	0.9942241858181697
0.012505903949580633	2.4484864408627475e-24	1.1845432052885766e9	6.036933243681902e25	353.8001553360703	1067.632612741437	3.837091044271737	0.9942241858181697
0.012554212828992304	2.50670759446981e-24	1.1845432052885766e9	6.036933243681902e25	353.8001553360703	1067.632612741437	3.837091044271737	0.9942241858181697
0.012602708320090698	2.5656391298892215e-24	1.1845432052885766e9	6.036933243681902e25	353.8001553360703	1067.632612741437	3.837091044271737	0.9942241858181697
0.012651391143735457	2.6252875491978505e-24	1.1845432052885766e9	6.036933243681902e25	353.8001553360703	1067.632612741437	3.837091044271737	0.9942241858181697
0.012700262023570824	2.6856594086785104e-24	1.1845432052885766e9	6.036933243681902e25	353.8001553360703	1067.632612741437	3.837091044271737	0.9942241858181697
0.01274932168603645	2.7467613192545933e-24	1.1845432052885766e9	6.036933243681902e25	353.8001553360703	1067.632612741437	3.837091044271737	0.9942241858181697
0.012798570860377983	2.808599946927778e-24	1.1845432052885766e9	6.036933243681902e25	353.8001553360703	1067.632612741437	3.837091044271737	0.9942241858181697
0.012848010278658215	2.8711820132198558e-24	1.1845432052885766e9	6.036933243681902e25	353.8001553360703	1067.632612741437	3.837091044271737	0.9942241858181697
0.012897640675767768	2.934514295617389e-24	1.1845432052885766e9	6.036933243681902e25	353.8001553360703	1067.632612741437	3.837091044271737	0.9942241858181697
0.01294746278943606	2.998603628020169e-24	1.1845432052885766e9	6.036933243681902e25	353.8001553360703	1067.632612741437	3.837091044271737	0.9942241858181697
0.01299747736024227	3.063456901193164e-24	1.1845432052885766e9	6.036933243681902e25	353.8001553360703	1067.632612741437	3.837091044271737	0.9942241858181697
0.013047685131626355	3.1290810632220144e-24	1.1845432052885766e9	6.036933243681902e25	353.8001553360703	1067.632612741437	3.837091044271737	0.9942241858181697
0.013098086849900095	3.195483119972117e-24	1.1845432052885766e9	6.036933243681902e25	353.8001553360703	1067.632612741437	3.837091044271737	0.9942241858181697
0.013148683264258183	3.2626701355513132e-24	1.1845432052885766e9	6.036933243681902e25	353.8001553360703	1067.632612741437	3.837091044271737	0.9942241858181697
0.013199475126789421	3.330649232776298e-24	1.1845432052885766e9	6.036933243681902e25	353.8001553360703	1067.632612741437	3.837091044271737	0.9942241858181697
0.013250463192487686	3.3994275936423374e-24	1.1845432052885766e9	6.036933243681902e25	353.8001553360703	1067.632612741437	3.837091044271737	0.9942241858181697
0.013301648219263473	3.469012459797415e-24	1.1845432052885766e9	6.036933243681902e25	353.8001553360703	1067.632612741437	3.837091044271737	0.9942241858181697
0.013353030967954935	3.5394111330193515e-24	1.1845432052885766e9	6.036933243681902e25	353.8001553360703	1067.632612741437	3.837091044271737	0.9942241858181697
0.013404612202339267	3.610630975697087e-24	1.1845432052885766e9	6.036933243681902e25	353.8001553360703	1067.632612741437	3.837091044271737	0.9942241858181697
0.013456392689144041	3.6826794113156385e-24	1.1845432052885766e9	6.036933243681902e25	353.8001553360703	1067.632612741437	3.837091044271737	0.9942241858181697
0.013508373198058612	3.755563924944888e-24	1.1845432052885766e9	6.036933243681902e25	353.8001553360703	1067.632612741437	3.837091044271737	0.9942241858181697
0.01356055450174556	3.829292063732227e-24	1.1845432052885766e9	6.036933243681902e25	353.8001553360703	1067.632612741437	3.837091044271737	0.9942241858181697
0.01361293737585217	3.903871437399048e-24	1.1845432052885766e9	6.036933243681902e25	353.8001553360703	1067.632612741437	3.837091044271737	0.9942241858181697
0.01366552259902196	3.979309718741168e-24	1.1845432052885766e9	6.036933243681902e25	353.8001553360703	1067.632612741437	3.837091044271737	0.9942241858181697
0.013718310952906324	4.0556146441332504e-24	1.1845432052885766e9	6.036933243681902e25	353.8001553360703	1067.632612741437	3.837091044271737	0.9942241858181697
0.013771303222175912	4.132794014036801e-24	1.1845432052885766e9	6.036933243681902e25	353.8001553360703	1067.632612741437	3.837091044271737	0.9942241858181697
0.013824500194532633	4.210855693512956e-24	1.1845432052885766e9	6.036933243681902e25	353.8001553360703	1067.632612741437	3.837091044271737	0.9942241858181697
0.013877902660721149	4.289807612738504e-24	1.1845432052885766e9	6.036933243681902e25	353.8001553360703	1067.632612741437	3.837091044271737	0.9942241858181697
0.013931511414540675	4.369657767526365e-24	1.1845432052885766e9	6.036933243681902e25	353.8001553360703	1067.632612741437	3.837091044271737	0.9942241858181697
0.01398532725285678	4.4504142198500785e-24	1.1845432052885766e9	6.036933243681902e25	353.8001553360703	1067.632612741437	3.837091044271737	0.9942241858181697
0.014039350975613237	4.5320850983724286e-24	1.1845432052885766e9	6.036933243681902e25	353.8001553360703	1067.632612741437	3.837091044271737	0.9942241858181697
0.014093583385843909	4.614678598978192e-24	1.1845432052885766e9	6.036933243681902e25	353.8001553360703	1067.632612741437	3.837091044271737	0.9942241858181697
0.014148025289684686	4.698202985311112e-24	1.1845432052885766e9	6.036933243681902e25	353.8001553360703	1067.632612741437	3.837091044271737	0.9942241858181697
0.014202677496385473	4.7826665893150775e-24	1.1845432052885766e9	6.036933243681902e25	353.8001553360703	1067.632612741437	3.837091044271737	0.9942241858181697
0.014257540818322267	4.868077811779632e-24	1.1845432052885766e9	6.036933243681902e25	353.8001553360703	1067.632612741437	3.837091044271737	0.9942241858181697
0.014312616071009013	4.954445122889342e-24	1.1845432052885766e9	6.036933243681902e25	353.8001553360703	1067.632612741437	3.837091044271737	0.9942241858181697
0.01436790407311006	5.0417770627783694e-24	1.1845432052885766e9	6.036933243681902e25	353.8001553360703	1067.632612741437	3.837091044271737	0.9942241858181697
0.014423405646452114	5.130082242088511e-24	1.1845432052885766e9	6.036933243681902e25	353.8001553360703	1067.632612741437	3.837091044271737	0.9942241858181697
0.014479121616036499	5.219369342532055e-24	1.1845432052885766e9	6.036933243681902e25	353.8001553360703	1067.632612741437	3.837091044271737	0.9942241858181697
0.014535052810051428	5.309647117459005e-24	1.1845432052885766e9	6.036933243681902e25	353.8001553360703	1067.632612741437	3.837091044271737	0.9942241858181697
0.014591200059884303	5.400924392428712e-24	1.1845432052885766e9	6.036933243681902e25	353.8001553360703	1067.632612741437	3.837091044271737	0.9942241858181697
0.01464756420013409	5.493210065786038e-24	1.1845432052885766e9	6.036933243681902e25	353.8001553360703	1067.632612741437	3.837091044271737	0.9942241858181697
0.01470414606862371	5.586513109242039e-24	1.1845432052885766e9	6.036933243681902e25	353.8001553360703	1067.632612741437	3.837091044271737	0.9942241858181697
0.01476094650641256	5.680842568459283e-24	1.1845432052885766e9	6.036933243681902e25	353.8001553360703	1067.632612741437	3.837091044271737	0.9942241858181697
0.014817966357808776	5.7762075636413056e-24	1.1845432052885766e9	6.036933243681902e25	353.8001553360703	1067.632612741437	3.837091044271737	0.9942241858181697
0.014875206470382133	5.872617290127651e-24	1.1845432052885766e9	6.036933243681902e25	353.8001553360703	1067.632612741437	3.837091044271737	0.9942241858181697
0.014932667694976419	5.970081018992644e-24	1.1845432052885766e9	6.036933243681902e25	353.8001553360703	1067.632612741437	3.837091044271737	0.9942241858181697
0.014990350885722127	6.068608097649292e-24	1.1845432052885766e9	6.036933243681902e25	353.8001553360703	1067.632612741437	3.837091044271737	0.9942241858181697
0.015048256900049167	6.1682079504578994e-24	1.1845432052885766e9	6.036933243681902e25	353.8001553360703	1067.632612741437	3.837091044271737	0.9942241858181697
0.015106386598699596	6.268890079339423e-24	1.1845432052885766e9	6.036933243681902e25	353.8001553360703	1067.632612741437	3.837091044271737	0.9942241858181697
0.015164740845740422	6.370664064393631e-24	1.1845432052885766e9	6.036933243681902e25	353.8001553360703	1067.632612741437	3.837091044271737	0.9942241858181697
0.015223320508576445	6.473539564522182e-24	1.1845432052885766e9	6.036933243681902e25	353.8001553360703	1067.632612741437	3.837091044271737	0.9942241858181697
0.015282126457963152	6.577526318056491e-24	1.1845432052885766e9	6.036933243681902e25	353.8001553360703	1067.632612741437	3.837091044271737	0.9942241858181697
0.015341159568019716	6.682634143390746e-24	1.1845432052885766e9	6.036933243681902e25	353.8001553360703	1067.632612741437	3.837091044271737	0.9942241858181697
0.015400420716241757	6.788872939619264e-24	1.1845432052885766e9	6.036933243681902e25	353.8001553360703	1067.632612741437	3.837091044271737	0.9942241858181697
0.015459910783514733	6.89625268717999e-24	1.1845432052885766e9	6.036933243681902e25	353.8001553360703	1067.632612741437	3.837091044271737	0.9942241858181697
0.01551963065412681	7.004783448501924e-24	1.1845432052885766e9	6.036933243681902e25	353.8001553360703	1067.632612741437	3.837091044271737	0.9942241858181697
0.015579581215782054	7.114475368658209e-24	1.1845432052885766e9	6.036933243681902e25	353.8001553360703	1067.632612741437	3.837091044271737	0.9942241858181697
0.01563976335961363	7.225338676024203e-24	1.1845432052885766e9	6.036933243681902e25	353.8001553360703	1067.632612741437	3.837091044271737	0.9942241858181697
0.015700177980197055	7.337383682940738e-24	1.1845432052885766e9	6.036933243681902e25	353.8001553360703	1067.632612741437	3.837091044271737	0.9942241858181697
0.01576082597556348	7.450620786382585e-24	1.1845432052885766e9	6.036933243681902e25	353.8001553360703	1067.632612741437	3.837091044271737	0.9942241858181697
0.015821708247213052	7.565060468632131e-24	1.1845432052885766e9	6.036933243681902e25	353.8001553360703	1067.632612741437	3.837091044271737	0.9942241858181697
0.01588282570012838	7.680713297958529e-24	1.1845432052885766e9	6.036933243681902e25	353.8001553360703	1067.632612741437	3.837091044271737	0.9942241858181697
0.01594417924278771	7.797589929301488e-24	1.1845432052885766e9	6.036933243681902e25	353.8001553360703	1067.632612741437	3.837091044271737	0.9942241858181697
0.016005769787178842	7.915701104961711e-24	1.1845432052885766e9	6.036933243681902e25	353.8001553360703	1067.632612741437	3.837091044271737	0.9942241858181697
0.016067598248812417	8.035057655295523e-24	1.1845432052885766e9	6.036933243681902e25	353.8001553360703	1067.632612741437	3.837091044271737	0.9942241858181697
0.01612966554673558	8.1556704994155e-24	1.1845432052885766e9	6.036933243681902e25	353.8001553360703	1067.632612741437	3.837091044271737	0.9942241858181697
0.016191972603545653	8.277550645896563e-24	1.1845432052885766e9	6.036933243681902e25	353.8001553360703	1067.632612741437	3.837091044271737	0.9942241858181697
