r[m]	M[Msun]	rho[g/cm^3]	P[N/m^2]	n_e[pm^-3]	n_p[pm^-3]	muF_e[MeV]	B
0.009999999999999981	-2.1112113694498368e-39	1.836621930586887e8	4.831804186314996e24	54.46735423892911	41.4477216115568	1.8589450553459739	0.9970781786555672
0.010039539113565015	4.659215312981298e-27	1.836621930586887e8	4.831804186314996e24	54.46735423892911	41.4477216115568	1.8589450553459739	0.9970781786555672
0.010079234561280199	9.467798892734024e-27	1.836621930586887e8	4.831804186314996e24	54.46735423892911	41.4477216115568	1.8589450553459739	0.9970781786555672
0.010119086961276905	1.4408647336864062e-26	1.836621930586887e8	4.831804186314996e24	54.46735423892911	41.4477216115568	1.8589450553459739	0.9970781786555672
0.010159096934130583	1.9464226351897713e-26	1.836621930586887e8	4.831804186314996e24	54.46735423892911	41.4477216115568	1.8589450553459739	0.9970781786555672
0.01019926510287026	2.461656351478287e-26	1.836621930586887e8	4.831804186314996e24	54.46735423892911	41.4477216115568	1.8589450553459739	0.9970781786555672
0.010239592092988485	2.9847240930334136e-26	1.836621930586887e8	4.831804186314996e24	54.46735423892911	41.4477216115568	1.8589450553459739	0.9970781786555672
0.010280078532450913	3.513738778312923e-26	1.836621930586887e8	4.831804186314996e24	54.46735423892911	41.4477216115568	1.8589450553459739	0.9970781786555672
0.010320725051706118	4.046767278253136e-26	1.836621930586887e8	4.831804186314996e24	54.46735423892911	41.4477216115568	1.8589450553459739	0.9970781786555672
0.010361532283695407	4.5818296499383333e-26	1.836621930586887e8	4.831804186314996e24	54.46735423892911	41.4477216115568	1.8589450553459739	0.9970781786555672
0.010402500863862728	5.116898359294557e-26	1.836621930586887e8	4.831804186314996e24	54.46735423892911	41.4477216115568	1.8589450553459739	0.9970781786555672
0.010443631430164389	5.649897492658471e-26	1.836621930586887e8	4.831804186314996e24	54.46735423892911	41.4477216115568	1.8589450553459739	0.9970781786555672
0.010484924623079251	6.178965701326326e-26	1.836621930586887e8	4.831804186314996e24	54.46735423892911	41.4477216115568	1.8589450553459739	0.9970781786555672
0.010526381085618524	6.717660935793768e-26	1.836621930586887e8	4.831804186314996e24	54.46735423892911	41.4477216115568	1.8589450553459739	0.9970781786555672
0.010568001463335834	7.273128667640993e-26	1.836621930586887e8	4.831804186314996e24	54.46735423892911	41.4477216115568	1.8589450553459739	0.9970781786555672
0.01060978640433726	7.843291162719585e-26	1.836621930586887e8	4.831804186314996e24	54.46735423892911	41.4477216115568	1.8589450553459739	0.9970781786555672
0.010651736559291485	8.426018568915293e-26	1.836621930586887e8	4.831804186314996e24	54.46735423892911	41.4477216115568	1.8589450553459739	0.9970781786555672
0.01069385258143975	9.019128041697456e-26	1.836621930586887e8	4.831804186314996e24	54.46735423892911	41.4477216115568	1.8589450553459739	0.9970781786555672
0.010736135126606277	9.620382857103947e-26	1.836621930586887e8	4.831804186314996e24	54.46735423892911	41.4477216115568	1.8589450553459739	0.9970781786555672
0.010778584853208319	1.0227491511982899e-25	1.836621930586887e8	4.831804186314996e24	54.46735423892911	41.4477216115568	1.8589450553459739	0.9970781786555672
0.010821202422266453	1.083810681132982e-25	1.836621930586887e8	4.831804186314996e24	54.46735423892911	41.4477216115568	1.8589450553459739	0.9970781786555672
0.010863988497414873	1.1449824942545586e-25	1.836621930586887e8	4.831804186314996e24	54.46735423892911	41.4477216115568	1.8589450553459739	0.9970781786555672
0.010906943744911723	1.2060184536441682e-25	1.836621930586887e8	4.831804186314996e24	54.46735423892911	41.4477216115568	1.8589450553459739	0.9970781786555672
0.010950068833649516	1.2666665714817347e-25	1.836621930586887e8	4.831804186314996e24	54.46735423892911	41.4477216115568	1.8589450553459739	0.9970781786555672
0.010993364435165376	1.3276619878885025e-25	1.836621930586887e8	4.831804186314996e24	54.46735423892911	41.4477216115568	1.8589450553459739	0.9970781786555672
0.011036831223651756	1.3907415475217553e-25	1.836621930586887e8	4.831804186314996e24	54.46735423892911	41.4477216115568	1.8589450553459739	0.9970781786555672
0.011080469875966762	1.455838620258832e-25	1.836621930586887e8	4.831804186314996e24	54.46735423892911	41.4477216115568	1.8589450553459739	0.9970781786555672
0.01112428107164474	1.5228362093606861e-25	1.836621930586887e8	4.831804186314996e24	54.46735423892911	41.4477216115568	1.8589450553459739	0.9970781786555672
0.011168265492906851	1.5916142101593318e-25	1.836621930586887e8	4.831804186314996e24	54.46735423892911	41.4477216115568	1.8589450553459739	0.9970781786555672
0.011212423824671743	1.6620493570990422e-25	1.836621930586887e8	4.831804186314996e24	54.46735423892911	41.4477216115568	1.8589450553459739	0.9970781786555672
0.011256756754566041	1.7340151700108617e-25	1.836621930586887e8	4.831804186314996e24	54.46735423892911	41.4477216115568	1.8589450553459739	0.9970781786555672
0.011301264972935316	1.807381899611157e-25	1.836621930586887e8	4.831804186314996e24	54.46735423892911	41.4477216115568	1.8589450553459739	0.9970781786555672
0.011345949172854657	1.8820164722125467e-25	1.836621930586887e8	4.831804186314996e24	54.46735423892911	41.4477216115568	1.8589450553459739	0.9970781786555672
0.011390810050139515	1.9577824336376815e-25	1.836621930586887e8	4.831804186314996e24	54.46735423892911	41.4477216115568	1.8589450553459739	0.9970781786555672
0.011435848303356535	2.0345398923248321e-25	1.836621930586887e8	4.831804186314996e24	54.46735423892911	41.4477216115568	1.8589450553459739	0.9970781786555672
0.01148106463383447	2.112145461614669e-25	1.836621930586887e8	4.831804186314996e24	54.46735423892911	41.4477216115568	1.8589450553459739	0.9970781786555672
0.011526459745674936	2.1904522012068966e-25	1.836621930586887e8	4.831804186314996e24	54.46735423892911	41.4477216115568	1.8589450553459739	0.9970781786555672
0.011572034345763638	2.2693095577767577e-25	1.836621930586887e8	4.831804186314996e24	54.46735423892911	41.4477216115568	1.8589450553459739	0.9970781786555672
0.011617789143781199	2.3485633047387917e-25	1.836621930586887e8	4.831804186314996e24	54.46735423892911	41.4477216115568	1.8589450553459739	0.9970781786555672
0.011663724852214258	2.428055481147573e-25	1.836621930586887e8	4.831804186314996e24	54.46735423892911	41.4477216115568	1.8589450553459739	0.9970781786555672
0.011709842186366557	2.5076243297235266e-25	1.836621930586887e8	4.831804186314996e24	54.46735423892911	41.4477216115568	1.8589450553459739	0.9970781786555672
0.011756141864370092	2.5871042339923215e-25	1.836621930586887e8	4.831804186314996e24	54.46735423892911	41.4477216115568	1.8589450553459739	0.9970781786555672
0.011802624607196338	2.666325654526069e-25	1.836621930586887e8	4.831804186314996e24	54.46735423892911	41.4477216115568	1.8589450553459739	0.9970781786555672
0.011849291138667275	2.745115064273955e-25	1.836621930586887e8	4.831804186314996e24	54.46735423892911	41.4477216115568	1.8589450553459739	0.9970781786555672
0.011896142185466965	2.823294882971488e-25	1.836621930586887e8	4.831804186314996e24	54.46735423892911	41.4477216115568	1.8589450553459739	0.9970781786555672
0.011943178477152662	2.9013160140314702e-25	1.836621930586887e8	4.831804186314996e24	54.46735423892911	41.4477216115568	1.8589450553459739	0.9970781786555672
0.011990400746166219	2.9817717885101816e-25	1.836621930586887e8	4.831804186314996e24	54.46735423892911	41.4477216115568	1.8589450553459739	0.9970781786555672
0.012037809727845511	3.0648246362310134e-25	1.836621930586887e8	4.831804186314996e24	54.46735423892911	41.4477216115568	1.8589450553459739	0.9970781786555672
0.012085406160435916	3.1503097480763584e-25	1.836621930586887e8	4.831804186314996e24	54.46735423892911	41.4477216115568	1.8589450553459739	0.9970781786555672
0.01213319078510162	3.2380579760817866e-25	1.836621930586887e8	4.831804186314996e24	54.46735423892911	41.4477216115568	1.8589450553459739	0.9970781786555672
0.012181164345937454	3.327895759675922e-25	1.836621930586887e8	4.831804186314996e24	54.46735423892911	41.4477216115568	1.8589450553459739	0.9970781786555672
0.012229327589980288	3.4196450508530994e-25	1.836621930586887e8	4.831804186314996e24	54.46735423892911	41.4477216115568	1.8589450553459739	0.9970781786555672
0.012277681267220708	3.513123238265903e-25	1.836621930586887e8	4.831804186314996e24	54.46735423892911	41.4477216115568	1.8589450553459739	0.9970781786555672
0.0123262261306147	3.608143070222644e-25	1.836621930586887e8	4.831804186314996e24	54.46735423892911	41.4477216115568	1.8589450553459739	0.9970781786555672
0.012374962936095416	3.7045125765752857e-25	1.836621930586887e8	4.831804186314996e24	54.46735423892911	41.4477216115568	1.8589450553459739	0.9970781786555672
0.01242389244258475	3.80203498948255e-25	1.836621930586887e8	4.831804186314996e24	54.46735423892911	41.4477216115568	1.8589450553459739	0.9970781786555672
0.012473015412005461	3.9005086630346262e-25	1.836621930586887e8	4.831804186314996e24	54.46735423892911	41.4477216115568	1.8589450553459739	0.9970781786555672
0.01252233260929283	3.99972699172236e-25	1.836621930586887e8	4.831804186314996e24	54.46735423892911	41.4477216115568	1.8589450553459739	0.9970781786555672
0.012571844802406624	4.0994783277370073e-25	1.836621930586887e8	4.831804186314996e24	54.46735423892911	41.4477216115568	1.8589450553459739	0.9970781786555672
0.012621552762343056	4.199545897084457e-25	1.836621930586887e8	4.831804186314996e24	54.46735423892911	41.4477216115568	1.8589450553459739	0.9970781786555672
0.01267145726314679	4.299707714498229e-25	1.836621930586887e8	4.831804186314996e24	54.46735423892911	41.4477216115568	1.8589450553459739	0.9970781786555672
0.012721559081923045	4.399736497135376e-25	1.836621930586887e8	4.831804186314996e24	54.46735423892911	41.4477216115568	1.8589450553459739	0.9970781786555672
0.012771858998849486	4.499399577038523e-25	1.836621930586887e8	4.831804186314996e24	54.46735423892911	41.4477216115568	1.8589450553459739	0.9970781786555672
0.012822357797188697	4.598458812349255e-25	1.836621930586887e8	4.831804186314996e24	54.46735423892911	41.4477216115568	1.8589450553459739	0.9970781786555672
0.01287305626330015	4.69667049725413e-25	1.836621930586887e8	4.831804186314996e24	54.46735423892911	41.4477216115568	1.8589450553459739	0.9970781786555672
0.012923955186652519	4.795072388242651e-25	1.836621930586887e8	4.831804186314996e24	54.46735423892911	41.4477216115568	1.8589450553459739	0.9970781786555672
0.012975055359835962	4.894931461852738e-25	1.836621930586887e8	4.831804186314996e24	54.46735423892911	41.4477216115568	1.8589450553459739	0.9970781786555672
0.013026357578574529	4.996262093131997e-25	1.836621930586887e8	4.831804186314996e24	54.46735423892911	41.4477216115568	1.8589450553459739	0.9970781786555672
0.013077862641738328	5.0990786318621475e-25	1.836621930586887e8	4.831804186314996e24	54.46735423892911	41.4477216115568	1.8589450553459739	0.9970781786555672
0.013129571351356287	5.203395552160941e-25	1.836621930586887e8	4.831804186314996e24	54.46735423892911	41.4477216115568	1.8589450553459739	0.9970781786555672
0.013181484512628435	5.309227453508974e-25	1.836621930586887e8	4.831804186314996e24	54.46735423892911	41.4477216115568	1.8589450553459739	0.9970781786555672
0.01323360293393849	5.416589061785354e-25	1.836621930586887e8	4.831804186314996e24	54.46735423892911	41.4477216115568	1.8589450553459739	0.9970781786555672
0.013285927426866443	5.525495230311506e-25	1.836621930586887e8	4.831804186314996e24	54.46735423892911	41.4477216115568	1.8589450553459739	0.9970781786555672
0.013338458806201263	5.6359609409037465e-25	1.836621930586887e8	4.831804186314996e24	54.46735423892911	41.4477216115568	1.8589450553459739	0.9970781786555672
0.013391197889953353	5.74800130493357e-25	1.836621930586887e8	4.831804186314996e24	54.46735423892911	41.4477216115568	1.8589450553459739	0.9970781786555672
0.013444145499367623	5.861631564397802e-25	1.836621930586887e8	4.831804186314996e24	54.46735423892911	41.4477216115568	1.8589450553459739	0.9970781786555672
0.013497302458936055	5.976867092996181e-25	1.836621930586887e8	4.831804186314996e24	54.46735423892911	41.4477216115568	1.8589450553459739	0.9970781786555672
0.013550669596410603	6.093723397218303e-25	1.836621930586887e8	4.831804186314996e24	54.46735423892911	41.4477216115568	1.8589450553459739	0.9970781786555672
0.013604247742816072	6.212216117439061e-25	1.836621930586887e8	4.831804186314996e24	54.46735423892911	41.4477216115568	1.8589450553459739	0.9970781786555672
0.013658037732463078	6.33236102902321e-25	1.836621930586887e8	4.831804186314996e24	54.46735423892911	41.4477216115568	1.8589450553459739	0.9970781786555672
0.013712040402961069	6.4541740434386815e-25	1.836621930586887e8	4.831804186314996e24	54.46735423892911	41.4477216115568	1.8589450553459739	0.9970781786555672
0.01376625659523117	6.577671209378514e-25	1.836621930586887e8	4.831804186314996e24	54.46735423892911	41.4477216115568	1.8589450553459739	0.9970781786555672
0.013820687153519591	6.702868713892901e-25	1.836621930586887e8	4.831804186314996e24	54.46735423892911	41.4477216115568	1.8589450553459739	0.9970781786555672
0.013875332925410573	6.829782883529311e-25	1.836621930586887e8	4.831804186314996e24	54.46735423892911	41.4477216115568	1.8589450553459739	0.9970781786555672
0.013930194761839617	6.958430185482294e-25	1.836621930586887e8	4.831804186314996e24	54.46735423892911	41.4477216115568	1.8589450553459739	0.9970781786555672
0.013985273517106756	7.088827228752542e-25	1.836621930586887e8	4.831804186314996e24	54.46735423892911	41.4477216115568	1.8589450553459739	0.9970781786555672
0.014040570048889906	7.220990765315411e-25	1.836621930586887e8	4.831804186314996e24	54.46735423892911	41.4477216115568	1.8589450553459739	0.9970781786555672
0.014096085218257993	7.354937691298174e-25	1.836621930586887e8	4.831804186314996e24	54.46735423892911	41.4477216115568	1.8589450553459739	0.9970781786555672
0.0141518198896847	7.490685048168198e-25	1.836621930586887e8	4.831804186314996e24	54.46735423892911	41.4477216115568	1.8589450553459739	0.9970781786555672
0.014207774931061715	7.628250023929322e-25	1.836621930586887e8	4.831804186314996e24	54.46735423892911	41.4477216115568	1.8589450553459739	0.9970781786555672
0.014263951213712283	7.767649954328555e-25	1.836621930586887e8	4.831804186314996e24	54.46735423892911	41.4477216115568	1.8589450553459739	0.9970781786555672
0.014320349612404786	7.908902324072407e-25	1.836621930586887e8	4.831804186314996e24	54.46735423892911	41.4477216115568	1.8589450553459739	0.9970781786555672
0.014376971005366432	8.0520247680532055e-25	1.836621930586887e8	4.831804186314996e24	54.46735423892911	41.4477216115568	1.8589450553459739	0.9970781786555672
0.014433816274296666	8.1970350725844735e-25	1.836621930586887e8	4.831804186314996e24	54.46735423892911	41.4477216115568	1.8589450553459739	0.9970781786555672
0.01449088630438129	8.343951176647931e-25	1.836621930586887e8	4.831804186314996e24	54.46735423892911	41.4477216115568	1.8589450553459739	0.9970781786555672
0.014548181984305979	8.492791173148855e-25	1.836621930586887e8	4.831804186314996e24	54.46735423892911	41.4477216115568	1.8589450553459739	0.9970781786555672
0.014605704206270206	8.643573310182565e-25	1.836621930586887e8	4.831804186314996e24	54.46735423892911	41.4477216115568	1.8589450553459739	0.9970781786555672
0.014663453866001104	8.7963159923107e-25	1.836621930586887e8	4.831804186314996e24	54.46735423892911	41.4477216115568	1.8589450553459739	0.9970781786555672
0.014721431862767446	8.951037781848066e-25	1.836621930586887e8	4.831804186314996e24	54.46735423892911	41.4477216115568	1.8589450553459739	0.9970781786555672
0.014779639099393694	9.107757400159832e-25	1.836621930586887e8	4.831804186314996e24	54.46735423892911	41.4477216115568	1.8589450553459739	0.9970781786555672
0.014838076482273808	9.266493728968469e-25	1.836621930586887e8	4.831804186314996e24	54.46735423892911	41.4477216115568	1.8589450553459739	0.9970781786555672
0.014896744921385733	9.427265811672795e-25	1.836621930586887e8	4.831804186314996e24	54.46735423892911	41.4477216115568	1.8589450553459739	0.9970781786555672
0.014955645330305333	9.590092854676165e-25	1.836621930586887e8	4.831804186314996e24	54.46735423892911	41.4477216115568	1.8589450553459739	0.9970781786555672
0.015014778626220662	9.754994228725986e-25	1.836621930586887e8	4.831804186314996e24	54.46735423892911	41.4477216115568	1.8589450553459739	0.9970781786555672
0.015074145729946259	9.921989470264067e-25	1.836621930586887e8	4.831804186314996e24	54.46735423892911	41.4477216115568	1.8589450553459739	0.9970781786555672
0.01513374756593754	1.009109828278789e-24	1.836621930586887e8	4.831804186314996e24	54.46735423892911	41.4477216115568	1.8589450553459739	0.9970781786555672
0.015193585062304954	1.0262340538222074e-24	1.836621930586887e8	4.831804186314996e24	54.46735423892911	41.4477216115568	1.8589450553459739	0.9970781786555672
0.015253659150828798	1.0435736278302606e-24	1.836621930586887e8	4.831804186314996e24	54.46735423892911	41.4477216115568	1.8589450553459739	0.9970781786555672
0.015313970766973493	1.0611305715970506e-24	1.836621930586887e8	4.831804186314996e24	54.46735423892911	41.4477216115568	1.8589450553459739	0.9970781786555672
0.015374520849902188	1.078906923677751e-24	1.836621930586887e8	4.831804186314996e24	54.46735423892911	41.4477216115568	1.8589450553459739	0.9970781786555672
0.015435310342491414	1.0969047400303139e-24	1.836621930586887e8	4.831804186314996e24	54.46735423892911	41.4477216115568	1.8589450553459739	0.9970781786555672
0.015496340191345805	1.115126094158304e-24	1.836621930586887e8	4.831804186314996e24	54.46735423892911	41.4477216115568	1.8589450553459739	0.9970781786555672
0.015557611346812604	1.1335730772548246e-24	1.836621930586887e8	4.831804186314996e24	54.46735423892911	41.4477216115568	1.8589450553459739	0.9970781786555672
0.015619124762996832	1.1522477983477689e-24	1.836621930586887e8	4.831804186314996e24	54.46735423892911	41.4477216115568	1.8589450553459739	0.9970781786555672
0.01568088139777589	1.171152384446059e-24	1.836621930586887e8	4.831804186314996e24	54.46735423892911	41.4477216115568	1.8589450553459739	0.9970781786555672
0.015742882212814533	1.1902889806871594e-24	1.836621930586887e8	4.831804186314996e24	54.46735423892911	41.4477216115568	1.8589450553459739	0.9970781786555672
0.015805128173579874	1.2096597504857664e-24	1.836621930586887e8	4.831804186314996e24	54.46735423892911	41.4477216115568	1.8589450553459739	0.9970781786555672
0.01586762024935638	1.2292668756836827e-24	1.836621930586887e8	4.831804186314996e24	54.46735423892911	41.4477216115568	1.8589450553459739	0.9970781786555672
0.01593035941326106	1.249112556700928e-24	1.836621930586887e8	4.831804186314996e24	54.46735423892911	41.4477216115568	1.8589450553459739	0.9970781786555672
0.015993346642258332	1.2691990126879646e-24	1.836621930586887e8	4.831804186314996e24	54.46735423892911	41.4477216115568	1.8589450553459739	0.9970781786555672
0.016056582917175648	1.2895284816793494e-24	1.836621930586887e8	4.831804186314996e24	54.46735423892911	41.4477216115568	1.8589450553459739	0.9970781786555672
0.016120069222718508	1.3101032207484306e-24	1.836621930586887e8	4.831804186314996e24	54.46735423892911	41.4477216115568	1.8589450553459739	0.9970781786555672
0.016183806547485833	1.3309255061633697e-24	1.836621930586887e8	4.831804186314996e24	54.46735423892911	41.4477216115568	1.8589450553459739	0.9970781786555672
0.016247795883985387	1.3519976335444286e-24	1.836621930586887e8	4.831804186314996e24	54.46735423892911	41.4477216115568	1.8589450553459739	0.9970781786555672
0.016312038228649295	1.3733219180225268e-24	1.836621930586887e8	4.831804186314996e24	54.46735423892911	41.4477216115568	1.8589450553459739	0.9970781786555672
0.016376534581849265	1.3949006943989625e-24	1.836621930586887e8	4.831804186314996e24	54.46735423892911	41.4477216115568	1.8589450553459739	0.9970781786555672
