r[m]	M[Msun]	rho[g/cm^3]	P[N/m^2]	n_e[pm^-3]	n_p[pm^-3]	muF_e[MeV]	B
0.010000000000000014	5.042702315564897e-42	555271.7655394224	9.965723059437162e20	0.16293744914516134	0.12539315461605743	0.09916750936016946	0.9998232386250873
0.010041837763481309	1.4946222671094005e-29	555271.7655394224	9.965723059437162e20	0.16293744914516134	0.12539315461605743	0.09916750936016946	0.9998232386250873
0.010083850566807958	3.048513288499035e-29	555271.7655394224	9.965723059437162e20	0.16293744914516134	0.12539315461605743	0.09916750936016946	0.9998232386250873
0.010126039142307442	4.660718246219542e-29	555271.7655394224	9.965723059437162e20	0.16293744914516134	0.12539315461605743	0.09916750936016946	0.9998232386250873
0.010168404225371262	6.330247479430287e-29	555271.7655394224	9.965723059437162e20	0.16293744914516134	0.12539315461605743	0.09916750936016946	0.9998232386250873
0.010210946554467632	8.056075818265229e-29	555271.7655394224	9.965723059437162e20	0.16293744914516134	0.12539315461605743	0.09916750936016946	0.9998232386250873
0.01025366687115423	9.837141907249845e-29	555271.7655394224	9.965723059437162e20	0.16293744914516134	0.12539315461605743	0.09916750936016946	0.9998232386250873
0.010296565920091365	1.1672347518133727e-28	555271.7655394224	9.965723059437162e20	0.16293744914516134	0.12539315461605743	0.09916750936016946	0.9998232386250873
0.01033964444905484	1.3560556851960322e-28	555271.7655394224	9.965723059437162e20	0.16293744914516134	0.12539315461605743	0.09916750936016946	0.9998232386250873
0.010382903208948866	1.550059583023202e-28	555271.7655394224	9.965723059437162e20	0.16293744914516134	0.12539315461605743	0.09916750936016946	0.9998232386250873
0.010426342953819384	1.749125137503219e-28	555271.7655394224	9.965723059437162e20	0.16293744914516134	0.12539315461605743	0.09916750936016946	0.9998232386250873
0.010469964440867062	1.9531270677913575e-28	555271.7655394224	9.965723059437162e20	0.16293744914516134	0.12539315461605743	0.09916750936016946	0.9998232386250873
0.010513768430460561	2.1619360457419875e-28	555271.7655394224	9.965723059437162e20	0.16293744914516134	0.12539315461605743	0.09916750936016946	0.9998232386250873
0.010557755686149634	2.3754186205057486e-28	555271.7655394224	9.965723059437162e20	0.16293744914516134	0.12539315461605743	0.09916750936016946	0.9998232386250873
0.010601926974678677	2.5934371419583053e-28	555271.7655394224	9.965723059437162e20	0.16293744914516134	0.12539315461605743	0.09916750936016946	0.9998232386250873
0.010646283065999977	2.815849682940417e-28	555271.7655394224	9.965723059437162e20	0.16293744914516134	0.12539315461605743	0.09916750936016946	0.9998232386250873
0.010690824733287	3.04250996029401e-28	555271.7655394224	9.965723059437162e20	0.16293744914516134	0.12539315461605743	0.09916750936016946	0.9998232386250873
0.010735552752948125	3.2732672546792124e-28	555271.7655394224	9.965723059437162e20	0.16293744914516134	0.12539315461605743	0.09916750936016946	0.9998232386250873
0.01078046790464005	3.5079663291511444e-28	555271.7655394224	9.965723059437162e20	0.16293744914516134	0.12539315461605743	0.09916750936016946	0.9998232386250873
0.010825570971281253	3.746447346480705e-28	555271.7655394224	9.965723059437162e20	0.16293744914516134	0.12539315461605743	0.09916750936016946	0.9998232386250873
0.010870862739065896	3.9885457852037297e-28	555271.7655394224	9.965723059437162e20	0.16293744914516134	0.12539315461605743	0.09916750936016946	0.9998232386250873
0.010916343997477408	4.234092354376248e-28	555271.7655394224	9.965723059437162e20	0.16293744914516134	0.12539315461605743	0.09916750936016946	0.9998232386250873
0.010962015539302102	4.4829129070195595e-28	555271.7655394224	9.965723059437162e20	0.16293744914516134	0.12539315461605743	0.09916750936016946	0.9998232386250873
0.011007878160643263	4.734828352238898e-28	555271.7655394224	9.965723059437162e20	0.16293744914516134	0.12539315461605743	0.09916750936016946	0.9998232386250873
0.011053932660934898	4.989654565992385e-28	555271.7655394224	9.965723059437162e20	0.16293744914516134	0.12539315461605743	0.09916750936016946	0.9998232386250873
0.011100179842955533	5.247202300493484e-28	555271.7655394224	9.965723059437162e20	0.16293744914516134	0.12539315461605743	0.09916750936016946	0.9998232386250873
0.011146620512842475	5.50727709222971e-28	555271.7655394224	9.965723059437162e20	0.16293744914516134	0.12539315461605743	0.09916750936016946	0.9998232386250873
0.011193255480105729	5.769679168573879e-28	555271.7655394224	9.965723059437162e20	0.16293744914516134	0.12539315461605743	0.09916750936016946	0.9998232386250873
0.011240085557641966	6.034203352969767e-28	555271.7655394224	9.965723059437162e20	0.16293744914516134	0.12539315461605743	0.09916750936016946	0.9998232386250873
0.01128711156174898	6.3006389686749855e-28	555271.7655394224	9.965723059437162e20	0.16293744914516134	0.12539315461605743	0.09916750936016946	0.9998232386250873
0.01133433431213977	6.568769741035537e-28	555271.7655394224	9.965723059437162e20	0.16293744914516134	0.12539315461605743	0.09916750936016946	0.9998232386250873
0.011381754631956694	6.838373698274021e-28	555271.7655394224	9.965723059437162e20	0.16293744914516134	0.12539315461605743	0.09916750936016946	0.9998232386250873
0.01142937334778609	7.109223070772756e-28	555271.7655394224	9.965723059437162e20	0.16293744914516134	0.12539315461605743	0.09916750936016946	0.9998232386250873
0.011477191289672499	7.381084188825716e-28	555271.7655394224	9.965723059437162e20	0.16293744914516134	0.12539315461605743	0.09916750936016946	0.9998232386250873
0.011525209291133237	7.653717378841953e-28	555271.7655394224	9.965723059437162e20	0.16293744914516134	0.12539315461605743	0.09916750936016946	0.9998232386250873
0.011573428189172723	7.926876857975374e-28	555271.7655394224	9.965723059437162e20	0.16293744914516134	0.12539315461605743	0.09916750936016946	0.9998232386250873
0.01162184882429736	8.200310627163393e-28	555271.7655394224	9.965723059437162e20	0.16293744914516134	0.12539315461605743	0.09916750936016946	0.9998232386250873
0.011670472040530039	8.473760362546528e-28	555271.7655394224	9.965723059437162e20	0.16293744914516134	0.12539315461605743	0.09916750936016946	0.9998232386250873
0.011719298685424717	8.746961305249148e-28	555271.7655394224	9.965723059437162e20	0.16293744914516134	0.12539315461605743	0.09916750936016946	0.9998232386250873
0.011768329610081462	9.019642149500296e-28	555271.7655394224	9.965723059437162e20	0.16293744914516134	0.12539315461605743	0.09916750936016946	0.9998232386250873
0.011817565669161161	9.291524929066926e-28	555271.7655394224	9.965723059437162e20	0.16293744914516134	0.12539315461605743	0.09916750936016946	0.9998232386250873
0.011867007720900267	9.562324901977944e-28	555271.7655394224	9.965723059437162e20	0.16293744914516134	0.12539315461605743	0.09916750936016946	0.9998232386250873
0.011916656627126038	9.831750433517712e-28	555271.7655394224	9.965723059437162e20	0.16293744914516134	0.12539315461605743	0.09916750936016946	0.9998232386250873
0.01196651325327144	1.00995028774601e-27	555271.7655394224	9.965723059437162e20	0.16293744914516134	0.12539315461605743	0.09916750936016946	0.9998232386250873
0.012016578468390054	1.0365276455520391e-27	555271.7655394224	9.965723059437162e20	0.16293744914516134	0.12539315461605743	0.09916750936016946	0.9998232386250873
0.012066853145171549	1.0628758135003191e-27	555271.7655394224	9.965723059437162e20	0.16293744914516134	0.12539315461605743	0.09916750936016946	0.9998232386250873
0.012117338159956718	1.08898561302667e-27	555271.7655394224	9.965723059437162e20	0.16293744914516134	0.12539315461605743	0.09916750936016946	0.9998232386250873
0.012168034392752634	1.115699348447455e-27	555271.7655394224	9.965723059437162e20	0.16293744914516134	0.12539315461605743	0.09916750936016946	0.9998232386250873
0.01221894272724826	1.1434393432205176e-27	555271.7655394224	9.965723059437162e20	0.16293744914516134	0.12539315461605743	0.09916750936016946	0.9998232386250873
0.01227006405082972	1.1721826608718366e-27	555271.7655394224	9.965723059437162e20	0.16293744914516134	0.12539315461605743	0.09916750936016946	0.9998232386250873
0.012321399254595616	1.2019056007861802e-27	555271.7655394224	9.965723059437162e20	0.16293744914516134	0.12539315461605743	0.09916750936016946	0.9998232386250873
0.012372949233372853	1.2325836838636665e-27	555271.7655394224	9.965723059437162e20	0.16293744914516134	0.12539315461605743	0.09916750936016946	0.9998232386250873
0.012424714885732097	1.2641916379527342e-27	555271.7655394224	9.965723059437162e20	0.16293744914516134	0.12539315461605743	0.09916750936016946	0.9998232386250873
0.012476697114003276	1.2967033830565498e-27	555271.7655394224	9.965723059437162e20	0.16293744914516134	0.12539315461605743	0.09916750936016946	0.9998232386250873
0.012528896824291622	1.3300920163099453e-27	555271.7655394224	9.965723059437162e20	0.16293744914516134	0.12539315461605743	0.09916750936016946	0.9998232386250873
0.012581314926493246	1.3643297967229954e-27	555271.7655394224	9.965723059437162e20	0.16293744914516134	0.12539315461605743	0.09916750936016946	0.9998232386250873
0.01263395233431113	1.3993881296884673e-27	555271.7655394224	9.965723059437162e20	0.16293744914516134	0.12539315461605743	0.09916750936016946	0.9998232386250873
0.012686809965270818	1.4352375512493104e-27	555271.7655394224	9.965723059437162e20	0.16293744914516134	0.12539315461605743	0.09916750936016946	0.9998232386250873
0.01273988874073673	1.4718477121233968e-27	555271.7655394224	9.965723059437162e20	0.16293744914516134	0.12539315461605743	0.09916750936016946	0.9998232386250873
0.01279318958592808	1.5091873614813904e-27	555271.7655394224	9.965723059437162e20	0.16293744914516134	0.12539315461605743	0.09916750936016946	0.9998232386250873
0.012846713429934825	1.5472243304744984e-27	555271.7655394224	9.965723059437162e20	0.16293744914516134	0.12539315461605743	0.09916750936016946	0.9998232386250873
0.012900461205734183	1.5859255155089685e-27	555271.7655394224	9.965723059437162e20	0.16293744914516134	0.12539315461605743	0.09916750936016946	0.9998232386250873
0.012954433850206748	1.6252568612630255e-27	555271.7655394224	9.965723059437162e20	0.16293744914516134	0.12539315461605743	0.09916750936016946	0.9998232386250873
0.013008632304152652	1.6651833434429406e-27	555271.7655394224	9.965723059437162e20	0.16293744914516134	0.12539315461605743	0.09916750936016946	0.9998232386250873
0.01306305751230828	1.705668951274894e-27	555271.7655394224	9.965723059437162e20	0.16293744914516134	0.12539315461605743	0.09916750936016946	0.9998232386250873
0.013117710423362586	1.7466766697281964e-27	555271.7655394224	9.965723059437162e20	0.16293744914516134	0.12539315461605743	0.09916750936016946	0.9998232386250873
0.013172591989973462	1.7881684614664133e-27	555271.7655394224	9.965723059437162e20	0.16293744914516134	0.12539315461605743	0.09916750936016946	0.9998232386250873
0.013227703168784674	1.8301052485229103e-27	555271.7655394224	9.965723059437162e20	0.16293744914516134	0.12539315461605743	0.09916750936016946	0.9998232386250873
0.01328304492044237	1.872446893696201e-27	555271.7655394224	9.965723059437162e20	0.16293744914516134	0.12539315461605743	0.09916750936016946	0.9998232386250873
0.013338618209611658	1.9151521816615e-27	555271.7655394224	9.965723059437162e20	0.16293744914516134	0.12539315461605743	0.09916750936016946	0.9998232386250873
0.013394424004993763	1.958178799794885e-27	555271.7655394224	9.965723059437162e20	0.16293744914516134	0.12539315461605743	0.09916750936016946	0.9998232386250873
0.013450463279342727	2.0014833187051897e-27	555271.7655394224	9.965723059437162e20	0.16293744914516134	0.12539315461605743	0.09916750936016946	0.9998232386250873
0.013506737009482227	2.0450211724699877e-27	555271.7655394224	9.965723059437162e20	0.16293744914516134	0.12539315461605743	0.09916750936016946	0.9998232386250873
0.013563246176322903	2.0887466385717778e-27	555271.7655394224	9.965723059437162e20	0.16293744914516134	0.12539315461605743	0.09916750936016946	0.9998232386250873
0.01361999176487932	2.1326128175294808e-27	555271.7655394224	9.965723059437162e20	0.16293744914516134	0.12539315461605743	0.09916750936016946	0.9998232386250873
0.013676974764286939	2.176571612221258e-27	555271.7655394224	9.965723059437162e20	0.16293744914516134	0.12539315461605743	0.09916750936016946	0.9998232386250873
0.01373419616781973	2.2205737068947764e-27	555271.7655394224	9.965723059437162e20	0.16293744914516134	0.12539315461605743	0.09916750936016946	0.9998232386250873
0.013791656972907225	2.2645685458596406e-27	555271.7655394224	9.965723059437162e20	0.16293744914516134	0.12539315461605743	0.09916750936016946	0.9998232386250873
0.013849358181152047	2.3085043118582824e-27	555271.7655394224	9.965723059437162e20	0.16293744914516134	0.12539315461605743	0.09916750936016946	0.9998232386250873
0.013907300798347125	2.352327904110219e-27	555271.7655394224	9.965723059437162e20	0.16293744914516134	0.12539315461605743	0.09916750936016946	0.9998232386250873
0.013965485834493573	2.3959849160258335e-27	555271.7655394224	9.965723059437162e20	0.16293744914516134	0.12539315461605743	0.09916750936016946	0.9998232386250873
0.014023914303818122	2.4394196125842035e-27	555271.7655394224	9.965723059437162e20	0.16293744914516134	0.12539315461605743	0.09916750936016946	0.9998232386250873
0.014082587224790631	2.4825749073706472e-27	555271.7655394224	9.965723059437162e20	0.16293744914516134	0.12539315461605743	0.09916750936016946	0.9998232386250873
0.014141505620142183	2.5253923392696435e-27	555271.7655394224	9.965723059437162e20	0.16293744914516134	0.12539315461605743	0.09916750936016946	0.9998232386250873
0.014200670516882733	2.5678120488074816e-27	555271.7655394224	9.965723059437162e20	0.16293744914516134	0.12539315461605743	0.09916750936016946	0.9998232386250873
0.014260082946318847	2.6103987848031336e-27	555271.7655394224	9.965723059437162e20	0.16293744914516134	0.12539315461605743	0.09916750936016946	0.9998232386250873
0.014319743944072021	2.6546896517167627e-27	555271.7655394224	9.965723059437162e20	0.16293744914516134	0.12539315461605743	0.09916750936016946	0.9998232386250873
0.01437965455009656	2.7007461679667952e-27	555271.7655394224	9.965723059437162e20	0.16293744914516134	0.12539315461605743	0.09916750936016946	0.9998232386250873
0.014439815808697529	2.748553700561217e-27	555271.7655394224	9.965723059437162e20	0.16293744914516134	0.12539315461605743	0.09916750936016946	0.9998232386250873
0.014500228768549303	2.7980969260901403e-27	555271.7655394224	9.965723059437162e20	0.16293744914516134	0.12539315461605743	0.09916750936016946	0.9998232386250873
0.014560894482713686	2.8493598169581e-27	555271.7655394224	9.965723059437162e20	0.16293744914516134	0.12539315461605743	0.09916750936016946	0.9998232386250873
0.014621814008658075	2.9023256273968865e-27	555271.7655394224	9.965723059437162e20	0.16293744914516134	0.12539315461605743	0.09916750936016946	0.9998232386250873
0.014682988408274247	2.9569768792562247e-27	555271.7655394224	9.965723059437162e20	0.16293744914516134	0.12539315461605743	0.09916750936016946	0.9998232386250873
0.014744418747896705	3.013295347568199e-27	555271.7655394224	9.965723059437162e20	0.16293744914516134	0.12539315461605743	0.09916750936016946	0.9998232386250873
0.014806106098321075	3.071262045882574e-27	555271.7655394224	9.965723059437162e20	0.16293744914516134	0.12539315461605743	0.09916750936016946	0.9998232386250873
0.014868051534823127	3.1308572113702407e-27	555271.7655394224	9.965723059437162e20	0.16293744914516134	0.12539315461605743	0.09916750936016946	0.9998232386250873
0.014930256137177352	3.1920602896904993e-27	555271.7655394224	9.965723059437162e20	0.16293744914516134	0.12539315461605743	0.09916750936016946	0.9998232386250873
0.014992720989675593	3.254849919619174e-27	555271.7655394224	9.965723059437162e20	0.16293744914516134	0.12539315461605743	0.09916750936016946	0.9998232386250873
0.015055447181146302	3.319203917434764e-27	555271.7655394224	9.965723059437162e20	0.16293744914516134	0.12539315461605743	0.09916750936016946	0.9998232386250873
0.015118435804973294	3.385099261058009e-27	555271.7655394224	9.965723059437162e20	0.16293744914516134	0.12539315461605743	0.09916750936016946	0.9998232386250873
0.01518168795911492	3.452512073942242e-27	555271.7655394224	9.965723059437162e20	0.16293744914516134	0.12539315461605743	0.09916750936016946	0.9998232386250873
0.015245204746122946	3.52141760871024e-27	555271.7655394224	9.965723059437162e20	0.16293744914516134	0.12539315461605743	0.09916750936016946	0.9998232386250873
0.01530898727316217	3.591790230535036e-27	555271.7655394224	9.965723059437162e20	0.16293744914516134	0.12539315461605743	0.09916750936016946	0.9998232386250873
0.015373036652029503	3.663603400259667e-27	555271.7655394224	9.965723059437162e20	0.16293744914516134	0.12539315461605743	0.09916750936016946	0.9998232386250873
0.015437353999173193	3.736829657252816e-27	555271.7655394224	9.965723059437162e20	0.16293744914516134	0.12539315461605743	0.09916750936016946	0.9998232386250873
0.015501940435712637	3.811440601997137e-27	555271.7655394224	9.965723059437162e20	0.16293744914516134	0.12539315461605743	0.09916750936016946	0.9998232386250873
0.015566797087457748	3.887406878405224e-27	555271.7655394224	9.965723059437162e20	0.16293744914516134	0.12539315461605743	0.09916750936016946	0.9998232386250873
0.015631925084928385	3.964698155859955e-27	555271.7655394224	9.965723059437162e20	0.16293744914516134	0.12539315461605743	0.09916750936016946	0.9998232386250873
0.015697325563374442	4.043283110975921e-27	555271.7655394224	9.965723059437162e20	0.16293744914516134	0.12539315461605743	0.09916750936016946	0.9998232386250873
0.015762999662795443	4.1231294090766896e-27	555271.7655394224	9.965723059437162e20	0.16293744914516134	0.12539315461605743	0.09916750936016946	0.9998232386250873
0.01582894852796022	4.204203685384455e-27	555271.7655394224	9.965723059437162e20	0.16293744914516134	0.12539315461605743	0.09916750936016946	0.9998232386250873
0.01589517330842726	4.28647152591873e-27	555271.7655394224	9.965723059437162e20	0.16293744914516134	0.12539315461605743	0.09916750936016946	0.9998232386250873
0.015961675158564545	4.3698974480985205e-27	555271.7655394224	9.965723059437162e20	0.16293744914516134	0.12539315461605743	0.09916750936016946	0.9998232386250873
0.016028455237569475	4.4544448810444556e-27	555271.7655394224	9.965723059437162e20	0.16293744914516134	0.12539315461605743	0.09916750936016946	0.9998232386250873
0.01609551470948947	4.540076145577355e-27	555271.7655394224	9.965723059437162e20	0.16293744914516134	0.12539315461605743	0.09916750936016946	0.9998232386250873
0.016162854743242066	4.626752433907496e-27	555271.7655394224	9.965723059437162e20	0.16293744914516134	0.12539315461605743	0.09916750936016946	0.9998232386250873
0.016230476512635098	4.714433789010832e-27	555271.7655394224	9.965723059437162e20	0.16293744914516134	0.12539315461605743	0.09916750936016946	0.9998232386250873
0.016298381196387535	4.8030790836885604e-27	555271.7655394224	9.965723059437162e20	0.16293744914516134	0.12539315461605743	0.09916750936016946	0.9998232386250873
0.016366569978149847	4.892645999304024e-27	555271.7655394224	9.965723059437162e20	0.16293744914516134	0.12539315461605743	0.09916750936016946	0.9998232386250873
0.016435044046524436	4.9830910041931086e-27	555271.7655394224	9.965723059437162e20	0.16293744914516134	0.12539315461605743	0.09916750936016946	0.9998232386250873
0.016503804595086755	5.0743693317442985e-27	555271.7655394224	9.965723059437162e20	0.16293744914516134	0.12539315461605743	0.09916750936016946	0.9998232386250873
0.016572852822405826	5.166434958142077e-27	555271.7655394224	9.965723059437162e20	0.16293744914516134	0.12539315461605743	0.09916750936016946	0.9998232386250873
0.01664218993206531	5.2592405797703534e-27	555271.7655394224	9.965723059437162e20	0.16293744914516134	0.12539315461605743	0.09916750936016946	0.9998232386250873
