r[m]	M[Msun]	rho[g/cm^3]	P[N/m^2]	n_e[pm^-3]	n_p[pm^-3]	muF_e[MeV]	B
0.01000000000000001	9.547516384136204e-40	1.3724308462659174e8	3.256351887928403e24	40.773272056682586	41.265168850238375	1.6515044267500454	0.9973767776800359
0.01003968025669274	3.494645207284571e-27	1.3724308462659174e8	3.256351887928403e24	40.773272056682586	41.265168850238375	1.6515044267500454	0.9973767776800359
0.01007951796566259	7.103432018266557e-27	1.3724308462659174e8	3.256351887928403e24	40.773272056682586	41.265168850238375	1.6515044267500454	0.9973767776800359
0.01011951375168428	1.0814935622302043e-26	1.3724308462659174e8	3.256351887928403e24	40.773272056682586	41.265168850238375	1.6515044267500454	0.9973767776800359
0.010159668242011526	1.4617439940740603e-26	1.3724308462659174e8	3.256351887928403e24	40.773272056682586	41.265168850238375	1.6515044267500454	0.9973767776800359
0.010199982066387125	1.8498932705121223e-26	1.3724308462659174e8	3.256351887928403e24	40.773272056682586	41.265168850238375	1.6515044267500454	0.9973767776800359
0.010240455857052674	2.2447100464215827e-26	1.3724308462659174e8	3.256351887928403e24	40.773272056682586	41.265168850238375	1.6515044267500454	0.9973767776800359
0.010281090248758515	2.644932351902455e-26	1.3724308462659174e8	3.256351887928403e24	40.773272056682586	41.265168850238375	1.6515044267500454	0.9973767776800359
0.010321885878773703	3.049267078474085e-26	1.3724308462659174e8	3.256351887928403e24	40.773272056682586	41.265168850238375	1.6515044267500454	0.9973767776800359
0.010362843386896026	3.4563894578714536e-26	1.3724308462659174e8	3.256351887928403e24	40.773272056682586	41.265168850238375	1.6515044267500454	0.9973767776800359
0.010403963415461886	3.8649425333404053e-26	1.3724308462659174e8	3.256351887928403e24	40.773272056682586	41.265168850238375	1.6515044267500454	0.9973767776800359
0.010445246609356616	4.2735366233377234e-26	1.3724308462659174e8	3.256351887928403e24	40.773272056682586	41.265168850238375	1.6515044267500454	0.9973767776800359
0.01048669361602443	4.680748777526385e-26	1.3724308462659174e8	3.256351887928403e24	40.773272056682586	41.265168850238375	1.6515044267500454	0.9973767776800359
0.010528305085478615	5.0851222249697355e-26	1.3724308462659174e8	3.256351887928403e24	40.773272056682586	41.265168850238375	1.6515044267500454	0.9973767776800359
0.010570081670311733	5.491540603024016e-26	1.3724308462659174e8	3.256351887928403e24	40.773272056682586	41.265168850238375	1.6515044267500454	0.9973767776800359
0.010612024025705886	5.911139115521823e-26	1.3724308462659174e8	3.256351887928403e24	40.773272056682586	41.265168850238375	1.6515044267500454	0.9973767776800359
0.01065413280944283	6.342846020521089e-26	1.3724308462659174e8	3.256351887928403e24	40.773272056682586	41.265168850238375	1.6515044267500454	0.9973767776800359
0.010696408681914543	6.785217377839912e-26	1.3724308462659174e8	3.256351887928403e24	40.773272056682586	41.265168850238375	1.6515044267500454	0.9973767776800359
0.010738852306133416	7.236772829949906e-26	1.3724308462659174e8	3.256351887928403e24	40.773272056682586	41.265168850238375	1.6515044267500454	0.9973767776800359
0.010781464347742685	7.695994988478824e-26	1.3724308462659174e8	3.256351887928403e24	40.773272056682586	41.265168850238375	1.6515044267500454	0.9973767776800359
0.01082424547502688	8.161328811860406e-26	1.3724308462659174e8	3.256351887928403e24	40.773272056682586	41.265168850238375	1.6515044267500454	0.9973767776800359
0.010867196358922344	8.631180974013779e-26	1.3724308462659174e8	3.256351887928403e24	40.773272056682586	41.265168850238375	1.6515044267500454	0.9973767776800359
0.010910317673027577	9.10391922393019e-26	1.3724308462659174e8	3.256351887928403e24	40.773272056682586	41.265168850238375	1.6515044267500454	0.9973767776800359
0.010953610093614074	9.577871736052668e-26	1.3724308462659174e8	3.256351887928403e24	40.773272056682586	41.265168850238375	1.6515044267500454	0.9973767776800359
0.010997074299636743	1.0051326451315873e-25	1.3724308462659174e8	3.256351887928403e24	40.773272056682586	41.265168850238375	1.6515044267500454	0.9973767776800359
0.011040710972744604	1.0522530408729364e-25	1.3724308462659174e8	3.256351887928403e24	40.773272056682586	41.265168850238375	1.6515044267500454	0.9973767776800359
0.01108452079729148	1.0990586272591045e-25	1.3724308462659174e8	3.256351887928403e24	40.773272056682586	41.265168850238375	1.6515044267500454	0.9973767776800359
0.011128504460346769	1.1469951289331113e-25	1.3724308462659174e8	3.256351887928403e24	40.773272056682586	41.265168850238375	1.6515044267500454	0.9973767776800359
0.011172662651706043	1.196565370774067e-25	1.3724308462659174e8	3.256351887928403e24	40.773272056682586	41.265168850238375	1.6515044267500454	0.9973767776800359
0.011216996063902142	1.2476897358962425e-25	1.3724308462659174e8	3.256351887928403e24	40.773272056682586	41.265168850238375	1.6515044267500454	0.9973767776800359
0.011261505392215841	1.3002864406512717e-25	1.3724308462659174e8	3.256351887928403e24	40.773272056682586	41.265168850238375	1.6515044267500454	0.9973767776800359
0.01130619133468681	1.3542714973752971e-25	1.3724308462659174e8	3.256351887928403e24	40.773272056682586	41.265168850238375	1.6515044267500454	0.9973767776800359
0.011351054592124606	1.409558676593884e-25	1.3724308462659174e8	3.256351887928403e24	40.773272056682586	41.265168850238375	1.6515044267500454	0.9973767776800359
0.011396095868119476	1.4660594686770894e-25	1.3724308462659174e8	3.256351887928403e24	40.773272056682586	41.265168850238375	1.6515044267500454	0.9973767776800359
0.01144131586905367	1.523683044938205e-25	1.3724308462659174e8	3.256351887928403e24	40.773272056682586	41.265168850238375	1.6515044267500454	0.9973767776800359
0.011486715304112336	1.5823362181675787e-25	1.3724308462659174e8	3.256351887928403e24	40.773272056682586	41.265168850238375	1.6515044267500454	0.9973767776800359
0.011532294885294685	1.6419234025947597e-25	1.3724308462659174e8	3.256351887928403e24	40.773272056682586	41.265168850238375	1.6515044267500454	0.9973767776800359
0.01157805532742516	1.7023465732709938e-25	1.3724308462659174e8	3.256351887928403e24	40.773272056682586	41.265168850238375	1.6515044267500454	0.9973767776800359
0.011623997348164695	1.763505224864461e-25	1.3724308462659174e8	3.256351887928403e24	40.773272056682586	41.265168850238375	1.6515044267500454	0.9973767776800359
0.011670121668021775	1.825296329859927e-25	1.3724308462659174e8	3.256351887928403e24	40.773272056682586	41.265168850238375	1.6515044267500454	0.9973767776800359
0.011716429010364024	1.887614296155925e-25	1.3724308462659174e8	3.256351887928403e24	40.773272056682586	41.265168850238375	1.6515044267500454	0.9973767776800359
0.011762920101429365	1.9503509240500315e-25	1.3724308462659174e8	3.256351887928403e24	40.773272056682586	41.265168850238375	1.6515044267500454	0.9973767776800359
0.011809595670337443	2.0133953626050865e-25	1.3724308462659174e8	3.256351887928403e24	40.773272056682586	41.265168850238375	1.6515044267500454	0.9973767776800359
0.011856456449101077	2.0766340653876777e-25	1.3724308462659174e8	3.256351887928403e24	40.773272056682586	41.265168850238375	1.6515044267500454	0.9973767776800359
0.011903503172637777	2.139950745570678e-25	1.3724308462659174e8	3.256351887928403e24	40.773272056682586	41.265168850238375	1.6515044267500454	0.9973767776800359
0.011950736578781077	2.203226330390913e-25	1.3724308462659174e8	3.256351887928403e24	40.773272056682586	41.265168850238375	1.6515044267500454	0.9973767776800359
0.0119981574082924	2.2663389149544133e-25	1.3724308462659174e8	3.256351887928403e24	40.773272056682586	41.265168850238375	1.6515044267500454	0.9973767776800359
0.012045766404872484	2.3291637153791813e-25	1.3724308462659174e8	3.256351887928403e24	40.773272056682586	41.265168850238375	1.6515044267500454	0.9973767776800359
0.012093564315173085	2.3915730212676957e-25	1.3724308462659174e8	3.256351887928403e24	40.773272056682586	41.265168850238375	1.6515044267500454	0.9973767776800359
0.012141551888808695	2.453436147499802e-25	1.3724308462659174e8	3.256351887928403e24	40.773272056682586	41.265168850238375	1.6515044267500454	0.9973767776800359
0.01218972987836835	2.5159340032536563e-25	1.3724308462659174e8	3.256351887928403e24	40.773272056682586	41.265168850238375	1.6515044267500454	0.9973767776800359
0.012238099039427219	2.580598044611396e-25	1.3724308462659174e8	3.256351887928403e24	40.773272056682586	41.265168850238375	1.6515044267500454	0.9973767776800359
0.012286660130558773	2.647317370332906e-25	1.3724308462659174e8	3.256351887928403e24	40.773272056682586	41.265168850238375	1.6515044267500454	0.9973767776800359
0.012335413913346464	2.715972679093539e-25	1.3724308462659174e8	3.256351887928403e24	40.773272056682586	41.265168850238375	1.6515044267500454	0.9973767776800359
0.01238436115239573	2.786441488445551e-25	1.3724308462659174e8	3.256351887928403e24	40.773272056682586	41.265168850238375	1.6515044267500454	0.9973767776800359
0.012433502615345985	2.8585980804156987e-25	1.3724308462659174e8	3.256351887928403e24	40.773272056682586	41.265168850238375	1.6515044267500454	0.9973767776800359
0.0124828390728827	2.932313446312829e-25	1.3724308462659174e8	3.256351887928403e24	40.773272056682586	41.265168850238375	1.6515044267500454	0.9973767776800359
0.012532371298749304	3.0074552307343913e-25	1.3724308462659174e8	3.256351887928403e24	40.773272056682586	41.265168850238375	1.6515044267500454	0.9973767776800359
0.012582100069759601	3.083887674762326e-25	1.3724308462659174e8	3.256351887928403e24	40.773272056682586	41.265168850238375	1.6515044267500454	0.9973767776800359
0.012632026165809771	3.1614715583359045e-25	1.3724308462659174e8	3.256351887928403e24	40.773272056682586	41.265168850238375	1.6515044267500454	0.9973767776800359
0.012682150369890633	3.240064141791638e-25	1.3724308462659174e8	3.256351887928403e24	40.773272056682586	41.265168850238375	1.6515044267500454	0.9973767776800359
0.012732473468099992	3.3195191065588186e-25	1.3724308462659174e8	3.256351887928403e24	40.773272056682586	41.265168850238375	1.6515044267500454	0.9973767776800359
0.01278299624965475	3.399686494998878e-25	1.3724308462659174e8	3.256351887928403e24	40.773272056682586	41.265168850238375	1.6515044267500454	0.9973767776800359
0.012833719506903601	3.480412649378444e-25	1.3724308462659174e8	3.256351887928403e24	40.773272056682586	41.265168850238375	1.6515044267500454	0.9973767776800359
0.012884644035339244	3.5615401499627998e-25	1.3724308462659174e8	3.256351887928403e24	40.773272056682586	41.265168850238375	1.6515044267500454	0.9973767776800359
0.012935770633610916	3.642907752219349e-25	1.3724308462659174e8	3.256351887928403e24	40.773272056682586	41.265168850238375	1.6515044267500454	0.9973767776800359
0.012987100103536913	3.724350323118594e-25	1.3724308462659174e8	3.256351887928403e24	40.773272056682586	41.265168850238375	1.6515044267500454	0.9973767776800359
0.013038633250117218	3.805698776520844e-25	1.3724308462659174e8	3.256351887928403e24	40.773272056682586	41.265168850238375	1.6515044267500454	0.9973767776800359
0.01309037088154592	3.88678000763597e-25	1.3724308462659174e8	3.256351887928403e24	40.773272056682586	41.265168850238375	1.6515044267500454	0.9973767776800359
0.013142313809224199	3.9674168265450385e-25	1.3724308462659174e8	3.256351887928403e24	40.773272056682586	41.265168850238375	1.6515044267500454	0.9973767776800359
0.013194462847772842	4.0474278907697424e-25	1.3724308462659174e8	3.256351887928403e24	40.773272056682586	41.265168850238375	1.6515044267500454	0.9973767776800359
0.013246818815045075	4.1269805162697e-25	1.3724308462659174e8	3.256351887928403e24	40.773272056682586	41.265168850238375	1.6515044267500454	0.9973767776800359
0.013299382532139383	4.2075514910920165e-25	1.3724308462659174e8	3.256351887928403e24	40.773272056682586	41.265168850238375	1.6515044267500454	0.9973767776800359
0.013352154823412447	4.289337620421681e-25	1.3724308462659174e8	3.256351887928403e24	40.773272056682586	41.265168850238375	1.6515044267500454	0.9973767776800359
0.013405136516491856	4.372350846433665e-25	1.3724308462659174e8	3.256351887928403e24	40.773272056682586	41.265168850238375	1.6515044267500454	0.9973767776800359
0.013458328442289405	4.456603215310134e-25	1.3724308462659174e8	3.256351887928403e24	40.773272056682586	41.265168850238375	1.6515044267500454	0.9973767776800359
0.013511731435013918	4.542106878103009e-25	1.3724308462659174e8	3.256351887928403e24	40.773272056682586	41.265168850238375	1.6515044267500454	0.9973767776800359
0.013565346332184376	4.628874091603984e-25	1.3724308462659174e8	3.256351887928403e24	40.773272056682586	41.265168850238375	1.6515044267500454	0.9973767776800359
0.013619173974643062	4.7169172192215595e-25	1.3724308462659174e8	3.256351887928403e24	40.773272056682586	41.265168850238375	1.6515044267500454	0.9973767776800359
0.013673215206568798	4.8062487318652245e-25	1.3724308462659174e8	3.256351887928403e24	40.773272056682586	41.265168850238375	1.6515044267500454	0.9973767776800359
0.013727470875489957	4.89688120883637e-25	1.3724308462659174e8	3.256351887928403e24	40.773272056682586	41.265168850238375	1.6515044267500454	0.9973767776800359
0.0137819418322981	4.988827338727392e-25	1.3724308462659174e8	3.256351887928403e24	40.773272056682586	41.265168850238375	1.6515044267500454	0.9973767776800359
0.013836628931261086	5.082099920327094e-25	1.3724308462659174e8	3.256351887928403e24	40.773272056682586	41.265168850238375	1.6515044267500454	0.9973767776800359
0.013891533030036537	5.176711863534006e-25	1.3724308462659174e8	3.256351887928403e24	40.773272056682586	41.265168850238375	1.6515044267500454	0.9973767776800359
0.013946654989685276	5.272676190276871e-25	1.3724308462659174e8	3.256351887928403e24	40.773272056682586	41.265168850238375	1.6515044267500454	0.9973767776800359
0.0140019956746849	5.370006035442846e-25	1.3724308462659174e8	3.256351887928403e24	40.773272056682586	41.265168850238375	1.6515044267500454	0.9973767776800359
0.014057555952943099	5.468714647812619e-25	1.3724308462659174e8	3.256351887928403e24	40.773272056682586	41.265168850238375	1.6515044267500454	0.9973767776800359
0.014113336695811617	5.5688153910042e-25	1.3724308462659174e8	3.256351887928403e24	40.773272056682586	41.265168850238375	1.6515044267500454	0.9973767776800359
0.014169338778099692	5.670321744423297e-25	1.3724308462659174e8	3.256351887928403e24	40.773272056682586	41.265168850238375	1.6515044267500454	0.9973767776800359
0.014225563078087818	5.773247304221903e-25	1.3724308462659174e8	3.256351887928403e24	40.773272056682586	41.265168850238375	1.6515044267500454	0.9973767776800359
0.014282010477541534	5.877605784264643e-25	1.3724308462659174e8	3.256351887928403e24	40.773272056682586	41.265168850238375	1.6515044267500454	0.9973767776800359
0.014338681861725303	5.9834110171029195e-25	1.3724308462659174e8	3.256351887928403e24	40.773272056682586	41.265168850238375	1.6515044267500454	0.9973767776800359
0.014395578119416169	6.090676954956538e-25	1.3724308462659174e8	3.256351887928403e24	40.773272056682586	41.265168850238375	1.6515044267500454	0.9973767776800359
0.014452700142918037	6.199417670704315e-25	1.3724308462659174e8	3.256351887928403e24	40.773272056682586	41.265168850238375	1.6515044267500454	0.9973767776800359
0.014510048828075443	6.309647358881664e-25	1.3724308462659174e8	3.256351887928403e24	40.773272056682586	41.265168850238375	1.6515044267500454	0.9973767776800359
0.01456762507428765	6.421380336686735e-25	1.3724308462659174e8	3.256351887928403e24	40.773272056682586	41.265168850238375	1.6515044267500454	0.9973767776800359
0.01462542978452283	6.534631044994825e-25	1.3724308462659174e8	3.256351887928403e24	40.773272056682586	41.265168850238375	1.6515044267500454	0.9973767776800359
0.014683463865331967	6.649414049380356e-25	1.3724308462659174e8	3.256351887928403e24	40.773272056682586	41.265168850238375	1.6515044267500454	0.9973767776800359
0.014741728226863447	6.765744041148293e-25	1.3724308462659174e8	3.256351887928403e24	40.773272056682586	41.265168850238375	1.6515044267500454	0.9973767776800359
0.014800223782877087	6.883635838372802e-25	1.3724308462659174e8	3.256351887928403e24	40.773272056682586	41.265168850238375	1.6515044267500454	0.9973767776800359
0.01485895145075853	7.003104386944871e-25	1.3724308462659174e8	3.256351887928403e24	40.773272056682586	41.265168850238375	1.6515044267500454	0.9973767776800359
0.014917912151533623	7.124164761628301e-25	1.3724308462659174e8	3.256351887928403e24	40.773272056682586	41.265168850238375	1.6515044267500454	0.9973767776800359
0.014977106809882929	7.246832167124399e-25	1.3724308462659174e8	3.256351887928403e24	40.773272056682586	41.265168850238375	1.6515044267500454	0.9973767776800359
0.015036536354155989	7.371121939144661e-25	1.3724308462659174e8	3.256351887928403e24	40.773272056682586	41.265168850238375	1.6515044267500454	0.9973767776800359
0.015096201716386233	7.497049545493348e-25	1.3724308462659174e8	3.256351887928403e24	40.773272056682586	41.265168850238375	1.6515044267500454	0.9973767776800359
0.01515610383230538	7.624630587157694e-25	1.3724308462659174e8	3.256351887928403e24	40.773272056682586	41.265168850238375	1.6515044267500454	0.9973767776800359
0.015216243641358136	7.753880799407413e-25	1.3724308462659174e8	3.256351887928403e24	40.773272056682586	41.265168850238375	1.6515044267500454	0.9973767776800359
0.015276622086716957	7.884816052903111e-25	1.3724308462659174e8	3.256351887928403e24	40.773272056682586	41.265168850238375	1.6515044267500454	0.9973767776800359
0.015337240115296896	8.017452354813783e-25	1.3724308462659174e8	3.256351887928403e24	40.773272056682586	41.265168850238375	1.6515044267500454	0.9973767776800359
0.015398098677770198	8.151805849942594e-25	1.3724308462659174e8	3.256351887928403e24	40.773272056682586	41.265168850238375	1.6515044267500454	0.9973767776800359
0.015459198728581591	8.287892821863261e-25	1.3724308462659174e8	3.256351887928403e24	40.773272056682586	41.265168850238375	1.6515044267500454	0.9973767776800359
0.015520541225962995	8.42572969406416e-25	1.3724308462659174e8	3.256351887928403e24	40.773272056682586	41.265168850238375	1.6515044267500454	0.9973767776800359
0.015582127131948627	8.565333031102487e-25	1.3724308462659174e8	3.256351887928403e24	40.773272056682586	41.265168850238375	1.6515044267500454	0.9973767776800359
0.015643957412390073	8.7067195397675e-25	1.3724308462659174e8	3.256351887928403e24	40.773272056682586	41.265168850238375	1.6515044267500454	0.9973767776800359
0.015706033036971517	8.84990607025344e-25	1.3724308462659174e8	3.256351887928403e24	40.773272056682586	41.265168850238375	1.6515044267500454	0.9973767776800359
0.015768354979224672	8.99490961734111e-25	1.3724308462659174e8	3.256351887928403e24	40.773272056682586	41.265168850238375	1.6515044267500454	0.9973767776800359
0.015830924216544442	9.141747321590548e-25	1.3724308462659174e8	3.256351887928403e24	40.773272056682586	41.265168850238375	1.6515044267500454	0.9973767776800359
0.015893741730204008	9.29043647054191e-25	1.3724308462659174e8	3.256351887928403e24	40.773272056682586	41.265168850238375	1.6515044267500454	0.9973767776800359
0.015956808505370252	9.44099449992667e-25	1.3724308462659174e8	3.256351887928403e24	40.773272056682586	41.265168850238375	1.6515044267500454	0.9973767776800359
0.016020125531119304	9.593438994888814e-25	1.3724308462659174e8	3.256351887928403e24	40.773272056682586	41.265168850238375	1.6515044267500454	0.9973767776800359
0.01608369380045176	9.747787691214953e-25	1.3724308462659174e8	3.256351887928403e24	40.773272056682586	41.265168850238375	1.6515044267500454	0.9973767776800359
0.01614751431030868	9.904058476576078e-25	1.3724308462659174e8	3.256351887928403e24	40.773272056682586	41.265168850238375	1.6515044267500454	0.9973767776800359
0.01621158806158694	1.006226939177776e-24	1.3724308462659174e8	3.256351887928403e24	40.773272056682586	41.265168850238375	1.6515044267500454	0.9973767776800359
