r[m]	M[Msun]	rho[g/cm^3]	P[N/m^2]	n_e[pm^-3]	n_p[pm^-3]	muF_e[MeV]	B
0.010000000000000016	2.4608387299956698e-39	2.3646665015792847e8	6.826737789328334e24	70.24799236472326	71.08758526280522	2.059340399207922	0.996781812667814
0.010039423673914845	5.981001294085319e-27	2.3646665015792847e8	6.826737789328334e24	70.24799236472326	71.08758526280522	2.059340399207922	0.996781812667814
0.010079002770436166	1.2153220078353554e-26	2.3646665015792847e8	6.826737789328334e24	70.24799236472326	71.08758526280522	2.059340399207922	0.996781812667814
0.010118737902296957	1.8494795959611998e-26	2.3646665015792847e8	6.826737789328334e24	70.24799236472326	71.08758526280522	2.059340399207922	0.996781812667814
0.01015862968464593	2.4983319461918885e-26	2.3646665015792847e8	6.826737789328334e24	70.24799236472326	71.08758526280522	2.059340399207922	0.996781812667814
0.010198678735056829	3.159582282978183e-26	2.3646665015792847e8	6.826737789328334e24	70.24799236472326	71.08758526280522	2.059340399207922	0.996781812667814
0.010238885673538126	3.8308770699529123e-26	2.3646665015792847e8	6.826737789328334e24	70.24799236472326	71.08758526280522	2.059340399207922	0.996781812667814
0.010279251122542559	4.5098050637006247e-26	2.3646665015792847e8	6.826737789328334e24	70.24799236472326	71.08758526280522	2.059340399207922	0.996781812667814
0.010319775706976933	5.193896353990319e-26	2.3646665015792847e8	6.826737789328334e24	70.24799236472326	71.08758526280522	2.059340399207922	0.996781812667814
0.010360460054211535	5.880621390279926e-26	2.3646665015792847e8	6.826737789328334e24	70.24799236472326	71.08758526280522	2.059340399207922	0.996781812667814
0.010401304794090018	6.56738999432554e-26	2.3646665015792847e8	6.826737789328334e24	70.24799236472326	71.08758526280522	2.059340399207922	0.996781812667814
0.010442310558939112	7.25155035870014e-26	2.3646665015792847e8	6.826737789328334e24	70.24799236472326	71.08758526280522	2.059340399207922	0.996781812667814
0.010483477983578366	7.93064680608599e-26	2.3646665015792847e8	6.826737789328334e24	70.24799236472326	71.08758526280522	2.059340399207922	0.996781812667814
0.010524807705330153	8.621610470283069e-26	2.3646665015792847e8	6.826737789328334e24	70.24799236472326	71.08758526280522	2.059340399207922	0.996781812667814
0.010566300364029273	9.334089953088839e-26	2.3646665015792847e8	6.826737789328334e24	70.24799236472326	71.08758526280522	2.059340399207922	0.996781812667814
0.010607956602033035	1.0065431576572559e-25	2.3646665015792847e8	6.826737789328334e24	70.24799236472326	71.08758526280522	2.059340399207922	0.996781812667814
0.01064977706423111	1.0812915286935864e-25	2.3646665015792847e8	6.826737789328334e24	70.24799236472326	71.08758526280522	2.059340399207922	0.996781812667814
0.010691762398055695	1.1573753544077462e-25	2.3646665015792847e8	6.826737789328334e24	70.24799236472326	71.08758526280522	2.059340399207922	0.996781812667814
0.01073391325349127	1.234509019523346e-25	2.3646665015792847e8	6.826737789328334e24	70.24799236472326	71.08758526280522	2.059340399207922	0.996781812667814
0.010776230283084838	1.3123999332498436e-25	2.3646665015792847e8	6.826737789328334e24	70.24799236472326	71.08758526280522	2.059340399207922	0.996781812667814
0.010818714141955982	1.3907484134001354e-25	2.3646665015792847e8	6.826737789328334e24	70.24799236472326	71.08758526280522	2.059340399207922	0.996781812667814
0.010861365487806958	1.469247568852268e-25	2.3646665015792847e8	6.826737789328334e24	70.24799236472326	71.08758526280522	2.059340399207922	0.996781812667814
0.010904184980933065	1.547583180333905e-25	2.3646665015792847e8	6.826737789328334e24	70.24799236472326	71.08758526280522	2.059340399207922	0.996781812667814
0.01094717328423259	1.625433579505912e-25	2.3646665015792847e8	6.826737789328334e24	70.24799236472326	71.08758526280522	2.059340399207922	0.996781812667814
0.01099033106321726	1.7036304477677714e-25	2.3646665015792847e8	6.826737789328334e24	70.24799236472326	71.08758526280522	2.059340399207922	0.996781812667814
0.011033658986022443	1.7844727849886968e-25	2.3646665015792847e8	6.826737789328334e24	70.24799236472326	71.08758526280522	2.059340399207922	0.996781812667814
0.011077157723417677	1.867902142566749e-25	2.3646665015792847e8	6.826737789328334e24	70.24799236472326	71.08758526280522	2.059340399207922	0.996781812667814
0.011120827948816789	1.9537691941274608e-25	2.3646665015792847e8	6.826737789328334e24	70.24799236472326	71.08758526280522	2.059340399207922	0.996781812667814
0.011164670338288496	2.0419206573502232e-25	2.3646665015792847e8	6.826737789328334e24	70.24799236472326	71.08758526280522	2.059340399207922	0.996781812667814
0.011208685570566817	2.132199226752664e-25	2.3646665015792847e8	6.826737789328334e24	70.24799236472326	71.08758526280522	2.059340399207922	0.996781812667814
0.011252874327061558	2.2244435055052914e-25	2.3646665015792847e8	6.826737789328334e24	70.24799236472326	71.08758526280522	2.059340399207922	0.996781812667814
0.011297237291869018	2.3184879362637083e-25	2.3646665015792847e8	6.826737789328334e24	70.24799236472326	71.08758526280522	2.059340399207922	0.996781812667814
0.011341775151782326	2.4141627310041074e-25	2.3646665015792847e8	6.826737789328334e24	70.24799236472326	71.08758526280522	2.059340399207922	0.996781812667814
0.01138648859630224	2.5112937998505776e-25	2.3646665015792847e8	6.826737789328334e24	70.24799236472326	71.08758526280522	2.059340399207922	0.996781812667814
0.011431378317647747	2.6097026788793423e-25	2.3646665015792847e8	6.826737789328334e24	70.24799236472326	71.08758526280522	2.059340399207922	0.996781812667814
0.011476445010766945	2.709206456887415e-25	2.3646665015792847e8	6.826737789328334e24	70.24799236472326	71.08758526280522	2.059340399207922	0.996781812667814
0.011521689373347537	2.809617701110462e-25	2.3646665015792847e8	6.826737789328334e24	70.24799236472326	71.08758526280522	2.059340399207922	0.996781812667814
0.011567112105827814	2.910744381877787e-25	2.3646665015792847e8	6.826737789328334e24	70.24799236472326	71.08758526280522	2.059340399207922	0.996781812667814
0.011612713911407457	3.0123897961889e-25	2.3646665015792847e8	6.826737789328334e24	70.24799236472326	71.08758526280522	2.059340399207922	0.996781812667814
0.011658495496058359	3.1143524901978544e-25	2.3646665015792847e8	6.826737789328334e24	70.24799236472326	71.08758526280522	2.059340399207922	0.996781812667814
0.011704457568535767	3.2164261805914244e-25	2.3646665015792847e8	6.826737789328334e24	70.24799236472326	71.08758526280522	2.059340399207922	0.996781812667814
0.011750600840388956	3.318399674844839e-25	2.3646665015792847e8	6.826737789328334e24	70.24799236472326	71.08758526280522	2.059340399207922	0.996781812667814
0.011796926025972435	3.420056790342357e-25	2.3646665015792847e8	6.826737789328334e24	70.24799236472326	71.08758526280522	2.059340399207922	0.996781812667814
0.011843433842456915	3.521176272345991e-25	2.3646665015792847e8	6.826737789328334e24	70.24799236472326	71.08758526280522	2.059340399207922	0.996781812667814
0.0118901250098406	3.621531710798347e-25	2.3646665015792847e8	6.826737789328334e24	70.24799236472326	71.08758526280522	2.059340399207922	0.996781812667814
0.011937000250960048	3.721514690144496e-25	2.3646665015792847e8	6.826737789328334e24	70.24799236472326	71.08758526280522	2.059340399207922	0.996781812667814
0.011984060291501555	3.8244731541857256e-25	2.3646665015792847e8	6.826737789328334e24	70.24799236472326	71.08758526280522	2.059340399207922	0.996781812667814
0.012031305860012284	3.9307687759450093e-25	2.3646665015792847e8	6.826737789328334e24	70.24799236472326	71.08758526280522	2.059340399207922	0.996781812667814
0.012078737687911751	4.0401914886128824e-25	2.3646665015792847e8	6.826737789328334e24	70.24799236472326	71.08758526280522	2.059340399207922	0.996781812667814
0.01212635650950285	4.152525708219955e-25	2.3646665015792847e8	6.826737789328334e24	70.24799236472326	71.08758526280522	2.059340399207922	0.996781812667814
0.012174163061983408	4.267550240105805e-25	2.3646665015792847e8	6.826737789328334e24	70.24799236472326	71.08758526280522	2.059340399207922	0.996781812667814
0.012222158085457563	4.385038184039073e-25	2.3646665015792847e8	6.826737789328334e24	70.24799236472326	71.08758526280522	2.059340399207922	0.996781812667814
0.012270342322947169	4.504756837971291e-25	2.3646665015792847e8	6.826737789328334e24	70.24799236472326	71.08758526280522	2.059340399207922	0.996781812667814
0.012318716520403486	4.626467600406932e-25	2.3646665015792847e8	6.826737789328334e24	70.24799236472326	71.08758526280522	2.059340399207922	0.996781812667814
0.012367281426718446	4.749925871369386e-25	2.3646665015792847e8	6.826737789328334e24	70.24799236472326	71.08758526280522	2.059340399207922	0.996781812667814
0.012416037793736429	4.874880951946701e-25	2.3646665015792847e8	6.826737789328334e24	70.24799236472326	71.08758526280522	2.059340399207922	0.996781812667814
0.012464986376265823	5.001075942396302e-25	2.3646665015792847e8	6.826737789328334e24	70.24799236472326	71.08758526280522	2.059340399207922	0.996781812667814
0.012514127932090889	5.128247638790848e-25	2.3646665015792847e8	6.826737789328334e24	70.24799236472326	71.08758526280522	2.059340399207922	0.996781812667814
0.012563463221983207	5.256126428184137e-25	2.3646665015792847e8	6.826737789328334e24	70.24799236472326	71.08758526280522	2.059340399207922	0.996781812667814
0.012612993009713648	5.384436182279696e-25	2.3646665015792847e8	6.826737789328334e24	70.24799236472326	71.08758526280522	2.059340399207922	0.996781812667814
0.012662718062064142	5.512894149580482e-25	2.3646665015792847e8	6.826737789328334e24	70.24799236472326	71.08758526280522	2.059340399207922	0.996781812667814
0.01271263914883951	5.641210846000156e-25	2.3646665015792847e8	6.826737789328334e24	70.24799236472326	71.08758526280522	2.059340399207922	0.996781812667814
0.012762757042879583	5.769089943916173e-25	2.3646665015792847e8	6.826737789328334e24	70.24799236472326	71.08758526280522	2.059340399207922	0.996781812667814
0.012813072520070848	5.896228159642101e-25	2.3646665015792847e8	6.826737789328334e24	70.24799236472326	71.08758526280522	2.059340399207922	0.996781812667814
0.012863586359358678	6.022315139301025e-25	2.3646665015792847e8	6.826737789328334e24	70.24799236472326	71.08758526280522	2.059340399207922	0.996781812667814
0.012914299342759283	6.148341030590584e-25	2.3646665015792847e8	6.826737789328334e24	70.24799236472326	71.08758526280522	2.059340399207922	0.996781812667814
0.012965212255372024	6.276206143127544e-25	2.3646665015792847e8	6.826737789328334e24	70.24799236472326	71.08758526280522	2.059340399207922	0.996781812667814
0.013016325885391256	6.405950617652359e-25	2.3646665015792847e8	6.826737789328334e24	70.24799236472326	71.08758526280522	2.059340399207922	0.996781812667814
0.013067641024118734	6.537592728320258e-25	2.3646665015792847e8	6.826737789328334e24	70.24799236472326	71.08758526280522	2.059340399207922	0.996781812667814
0.013119158465975823	6.671150907166614e-25	2.3646665015792847e8	6.826737789328334e24	70.24799236472326	71.08758526280522	2.059340399207922	0.996781812667814
0.013170879008515726	6.806643745407271e-25	2.3646665015792847e8	6.826737789328334e24	70.24799236472326	71.08758526280522	2.059340399207922	0.996781812667814
0.013222803452436063	6.944089994750249e-25	2.3646665015792847e8	6.826737789328334e24	70.24799236472326	71.08758526280522	2.059340399207922	0.996781812667814
0.013274932601590933	7.083508568716396e-25	2.3646665015792847e8	6.826737789328334e24	70.24799236472326	71.08758526280522	2.059340399207922	0.996781812667814
0.013327267263003576	7.224918543972272e-25	2.3646665015792847e8	6.826737789328334e24	70.24799236472326	71.08758526280522	2.059340399207922	0.996781812667814
0.013379808246878762	7.3683391616729035e-25	2.3646665015792847e8	6.826737789328334e24	70.24799236472326	71.08758526280522	2.059340399207922	0.996781812667814
0.013432556366615547	7.513789828816059e-25	2.3646665015792847e8	6.826737789328334e24	70.24799236472326	71.08758526280522	2.059340399207922	0.996781812667814
0.013485512438819547	7.661290119606254e-25	2.3646665015792847e8	6.826737789328334e24	70.24799236472326	71.08758526280522	2.059340399207922	0.996781812667814
0.013538677283315785	7.810859776830941e-25	2.3646665015792847e8	6.826737789328334e24	70.24799236472326	71.08758526280522	2.059340399207922	0.996781812667814
0.013592051723161337	7.962518713247264e-25	2.3646665015792847e8	6.826737789328334e24	70.24799236472326	71.08758526280522	2.059340399207922	0.996781812667814
0.013645636584658019	8.116287012979833e-25	2.3646665015792847e8	6.826737789328334e24	70.24799236472326	71.08758526280522	2.059340399207922	0.996781812667814
0.013699432697365397	8.27218493293061e-25	2.3646665015792847e8	6.826737789328334e24	70.24799236472326	71.08758526280522	2.059340399207922	0.996781812667814
0.013753440894113305	8.4302329041986e-25	2.3646665015792847e8	6.826737789328334e24	70.24799236472326	71.08758526280522	2.059340399207922	0.996781812667814
0.01380766201101494	8.590451533512459e-25	2.3646665015792847e8	6.826737789328334e24	70.24799236472326	71.08758526280522	2.059340399207922	0.996781812667814
0.013862096887479724	8.752861604673793e-25	2.3646665015792847e8	6.826737789328334e24	70.24799236472326	71.08758526280522	2.059340399207922	0.996781812667814
0.013916746366226501	8.917484080013052e-25	2.3646665015792847e8	6.826737789328334e24	70.24799236472326	71.08758526280522	2.059340399207922	0.996781812667814
0.013971611293296245	9.084340101855331e-25	2.3646665015792847e8	6.826737789328334e24	70.24799236472326	71.08758526280522	2.059340399207922	0.996781812667814
0.014026692518065409	9.25345099399993e-25	2.3646665015792847e8	6.826737789328334e24	70.24799236472326	71.08758526280522	2.059340399207922	0.996781812667814
0.014081990893258987	9.424838263210685e-25	2.3646665015792847e8	6.826737789328334e24	70.24799236472326	71.08758526280522	2.059340399207922	0.996781812667814
0.014137507274963667	9.598523600718487e-25	2.3646665015792847e8	6.826737789328334e24	70.24799236472326	71.08758526280522	2.059340399207922	0.996781812667814
0.014193242522641335	9.774528883736767e-25	2.3646665015792847e8	6.826737789328334e24	70.24799236472326	71.08758526280522	2.059340399207922	0.996781812667814
0.014249197499142004	9.95287617698729e-25	2.3646665015792847e8	6.826737789328334e24	70.24799236472326	71.08758526280522	2.059340399207922	0.996781812667814
0.014305373070717418	1.0133587734240067e-24	2.3646665015792847e8	6.826737789328334e24	70.24799236472326	71.08758526280522	2.059340399207922	0.996781812667814
0.014361770107034351	1.0316685999864707e-24	2.3646665015792847e8	6.826737789328334e24	70.24799236472326	71.08758526280522	2.059340399207922	0.996781812667814
0.014418389481188294	1.0502193610395164e-24	2.3646665015792847e8	6.826737789328334e24	70.24799236472326	71.08758526280522	2.059340399207922	0.996781812667814
0.01447523206971663	1.0690133396105291e-24	2.3646665015792847e8	6.826737789328334e24	70.24799236472326	71.08758526280522	2.059340399207922	0.996781812667814
0.014532298752612423	1.088052838259903e-24	2.3646665015792847e8	6.826737789328334e24	70.24799236472326	71.08758526280522	2.059340399207922	0.996781812667814
0.014589590413338007	1.1073401792412328e-24	2.3646665015792847e8	6.826737789328334e24	70.24799236472326	71.08758526280522	2.059340399207922	0.996781812667814
0.014647107938838581	1.1268777046627944e-24	2.3646665015792847e8	6.826737789328334e24	70.24799236472326	71.08758526280522	2.059340399207922	0.996781812667814
0.014704852219556187	1.146667776650439e-24	2.3646665015792847e8	6.826737789328334e24	70.24799236472326	71.08758526280522	2.059340399207922	0.996781812667814
0.014762824149443136	1.1667127775115759e-24	2.3646665015792847e8	6.826737789328334e24	70.24799236472326	71.08758526280522	2.059340399207922	0.996781812667814
0.014821024625976096	1.1870151099006957e-24	2.3646665015792847e8	6.826737789328334e24	70.24799236472326	71.08758526280522	2.059340399207922	0.996781812667814
0.014879454550169844	1.2075771969860816e-24	2.3646665015792847e8	6.826737789328334e24	70.24799236472326	71.08758526280522	2.059340399207922	0.996781812667814
0.014938114826591487	1.2284014826180135e-24	2.3646665015792847e8	6.826737789328334e24	70.24799236472326	71.08758526280522	2.059340399207922	0.996781812667814
0.014997006363374065	1.2494904314980853e-24	2.3646665015792847e8	6.826737789328334e24	70.24799236472326	71.08758526280522	2.059340399207922	0.996781812667814
0.015056130072230889	1.2708465293501155e-24	2.3646665015792847e8	6.826737789328334e24	70.24799236472326	71.08758526280522	2.059340399207922	0.996781812667814
0.015115486868469575	1.2924722830923231e-24	2.3646665015792847e8	6.826737789328334e24	70.24799236472326	71.08758526280522	2.059340399207922	0.996781812667814
0.015175077671006154	1.3143702210108749e-24	2.3646665015792847e8	6.826737789328334e24	70.24799236472326	71.08758526280522	2.059340399207922	0.996781812667814
0.015234903402379544	1.3365428929349499e-24	2.3646665015792847e8	6.826737789328334e24	70.24799236472326	71.08758526280522	2.059340399207922	0.996781812667814
0.015294964988765475	1.3589928704129968e-24	2.3646665015792847e8	6.826737789328334e24	70.24799236472326	71.08758526280522	2.059340399207922	0.996781812667814
0.015355263359991054	1.3817227468905985e-24	2.3646665015792847e8	6.826737789328334e24	70.24799236472326	71.08758526280522	2.059340399207922	0.996781812667814
0.015415799449549048	1.4047351378896793e-24	2.3646665015792847e8	6.826737789328334e24	70.24799236472326	71.08758526280522	2.059340399207922	0.996781812667814
0.01547657419461259	1.4280326811892457e-24	2.3646665015792847e8	6.826737789328334e24	70.24799236472326	71.08758526280522	2.059340399207922	0.996781812667814
0.015537588536049293	1.4516180370073744e-24	2.3646665015792847e8	6.826737789328334e24	70.24799236472326	71.08758526280522	2.059340399207922	0.996781812667814
0.01559884341843609	1.4754938881848905e-24	2.3646665015792847e8	6.826737789328334e24	70.24799236472326	71.08758526280522	2.059340399207922	0.996781812667814
0.015660339790073776	1.4996629403703953e-24	2.3646665015792847e8	6.826737789328334e24	70.24799236472326	71.08758526280522	2.059340399207922	0.996781812667814
0.01572207860300164	1.5241279222067941e-24	2.3646665015792847e8	6.826737789328334e24	70.24799236472326	71.08758526280522	2.059340399207922	0.996781812667814
0.01578406081301244	1.5488915855194346e-24	2.3646665015792847e8	6.826737789328334e24	70.24799236472326	71.08758526280522	2.059340399207922	0.996781812667814
0.01584628737966684	1.5739567055055151e-24	2.3646665015792847e8	6.826737789328334e24	70.24799236472326	71.08758526280522	2.059340399207922	0.996781812667814
0.015908759266308508	1.5993260809252634e-24	2.3646665015792847e8	6.826737789328334e24	70.24799236472326	71.08758526280522	2.059340399207922	0.996781812667814
0.015971477440078884	1.6250025342944871e-24	2.3646665015792847e8	6.826737789328334e24	70.24799236472326	71.08758526280522	2.059340399207922	0.996781812667814
0.016034442871932453	1.6509889120788564e-24	2.3646665015792847e8	6.826737789328334e24	70.24799236472326	71.08758526280522	2.059340399207922	0.996781812667814
0.016097656536651354	1.677288084889453e-24	2.3646665015792847e8	6.826737789328334e24	70.24799236472326	71.08758526280522	2.059340399207922	0.996781812667814
0.016161119412860737	1.703902947680166e-24	2.3646665015792847e8	6.826737789328334e24	70.24799236472326	71.08758526280522	2.059340399207922	0.996781812667814
0.016224832483043856	1.7308364199465483e-24	2.3646665015792847e8	6.826737789328334e24	70.24799236472326	71.08758526280522	2.059340399207922	0.996781812667814
0.01628879673355721	1.7580914459262553e-24	2.3646665015792847e8	6.826737789328334e24	70.24799236472326	71.08758526280522	2.059340399207922	0.996781812667814
0.016353013154646077	1.785670994801245e-24	2.3646665015792847e8	6.826737789328334e24	70.24799236472326	71.08758526280522	2.059340399207922	0.996781812667814
