r[m]	M[Msun]	rho[g/cm^3]	P[N/m^2]	n_e[pm^-3]	n_p[pm^-3]	muF_e[MeV]	B
0.009999999999999981	-3.455931986933809e-39	2.99190143262287e8	9.468486730620225e24	89.42925637570158	269.83132423224265	2.2665376162133337	0.9964601668189793
0.010039324497952026	7.548158880104228e-27	2.99190143262287e8	9.468486730620225e24	89.42925637570158	269.83132423224265	2.2665376162133337	0.9964601668189793
0.010078803637517949	1.5337079928615417e-26	2.99190143262287e8	9.468486730620225e24	89.42925637570158	269.83132423224265	2.2665376162133337	0.9964601668189793
0.010118438026818213	2.3339287581960876e-26	2.99190143262287e8	9.468486730620225e24	89.42925637570158	269.83132423224265	2.2665376162133337	0.9964601668189793
0.010158228276364565	3.152661792236247e-26	2.99190143262287e8	9.468486730620225e24	89.42925637570158	269.83132423224265	2.2665376162133337	0.9964601668189793
0.010198174999069554	3.9870207177603003e-26	2.99190143262287e8	9.468486730620225e24	89.42925637570158	269.83132423224265	2.2665376162133337	0.9964601668189793
0.010238278810256105	4.8340480056299744e-26	2.99190143262287e8	9.468486730620225e24	89.42925637570158	269.83132423224265	2.2665376162133337	0.9964601668189793
0.010278540327666702	5.690713791640629e-26	2.99190143262287e8	9.468486730620225e24	89.42925637570158	269.83132423224265	2.2665376162133337	0.9964601668189793
0.010318960171473237	6.553914676495681e-26	2.99190143262287e8	9.468486730620225e24	89.42925637570158	269.83132423224265	2.2665376162133337	0.9964601668189793
0.01035953896428627	7.420472508655622e-26	2.99190143262287e8	9.468486730620225e24	89.42925637570158	269.83132423224265	2.2665376162133337	0.9964601668189793
0.01040027733116475	8.287133149857263e-26	2.99190143262287e8	9.468486730620225e24	89.42925637570158	269.83132423224265	2.2665376162133337	0.9964601668189793
0.010441175899625758	9.150565223065103e-26	2.99190143262287e8	9.468486730620225e24	89.42925637570158	269.83132423224265	2.2665376162133337	0.9964601668189793
0.010482235299653935	1.0007592800698295e-25	2.99190143262287e8	9.468486730620225e24	89.42925637570158	269.83132423224265	2.2665376162133337	0.9964601668189793
0.010523456163711304	1.0878931580530753e-25	2.99190143262287e8	9.468486730620225e24	89.42925637570158	269.83132423224265	2.2665376162133337	0.9964601668189793
0.010564839126747133	1.177742249920148e-25	2.99190143262287e8	9.468486730620225e24	89.42925637570158	269.83132423224265	2.2665376162133337	0.9964601668189793
0.010606384826207436	1.269973243911114e-25	2.99190143262287e8	9.468486730620225e24	89.42925637570158	269.83132423224265	2.2665376162133337	0.9964601668189793
0.010648093902045117	1.3642445111947053e-25	2.99190143262287e8	9.468486730620225e24	89.42925637570158	269.83132423224265	2.2665376162133337	0.9964601668189793
0.010689966996729533	1.4602059670726932e-25	2.99190143262287e8	9.468486730620225e24	89.42925637570158	269.83132423224265	2.2665376162133337	0.9964601668189793
0.01073200475525652	1.5574989302008231e-25	2.99190143262287e8	9.468486730620225e24	89.42925637570158	269.83132423224265	2.2665376162133337	0.9964601668189793
0.010774207825158465	1.655755979799073e-25	2.99190143262287e8	9.468486730620225e24	89.42925637570158	269.83132423224265	2.2665376162133337	0.9964601668189793
0.010816576856514	1.7546008108237638e-25	2.99190143262287e8	9.468486730620225e24	89.42925637570158	269.83132423224265	2.2665376162133337	0.9964601668189793
0.010859112501958168	1.8536480870763553e-25	2.99190143262287e8	9.468486730620225e24	89.42925637570158	269.83132423224265	2.2665376162133337	0.9964601668189793
0.010901815416692596	1.9525032922207187e-25	2.99190143262287e8	9.468486730620225e24	89.42925637570158	269.83132423224265	2.2665376162133337	0.9964601668189793
0.010944686258495281	2.0507625786802483e-25	2.99190143262287e8	9.468486730620225e24	89.42925637570158	269.83132423224265	2.2665376162133337	0.9964601668189793
0.010987725687731079	2.149333642635057e-25	2.99190143262287e8	9.468486730620225e24	89.42925637570158	269.83132423224265	2.2665376162133337	0.9964601668189793
0.01103093436736156	2.2511992838482187e-25	2.99190143262287e8	9.468486730620225e24	89.42925637570158	269.83132423224265	2.2665376162133337	0.9964601668189793
0.011074312962955362	2.35632845946989e-25	2.99190143262287e8	9.468486730620225e24	89.42925637570158	269.83132423224265	2.2665376162133337	0.9964601668189793
0.011117862142698567	2.4645337323460548e-25	2.99190143262287e8	9.468486730620225e24	89.42925637570158	269.83132423224265	2.2665376162133337	0.9964601668189793
0.011161582577404735	2.575622710850472e-25	2.99190143262287e8	9.468486730620225e24	89.42925637570158	269.83132423224265	2.2665376162133337	0.9964601668189793
0.011205474940525362	2.6893979649093426e-25	2.99190143262287e8	9.468486730620225e24	89.42925637570158	269.83132423224265	2.2665376162133337	0.9964601668189793
0.011249539908160402	2.8056569408173908e-25	2.99190143262287e8	9.468486730620225e24	89.42925637570158	269.83132423224265	2.2665376162133337	0.9964601668189793
0.011293778159068346	2.92419187482797e-25	2.99190143262287e8	9.468486730620225e24	89.42925637570158	269.83132423224265	2.2665376162133337	0.9964601668189793
0.01133819037467706	3.0447897055040413e-25	2.99190143262287e8	9.468486730620225e24	89.42925637570158	269.83132423224265	2.2665376162133337	0.9964601668189793
0.01138277723909395	3.1672319848098305e-25	2.99190143262287e8	9.468486730620225e24	89.42925637570158	269.83132423224265	2.2665376162133337	0.9964601668189793
0.011427539439116636	3.2912947879295206e-25	2.99190143262287e8	9.468486730620225e24	89.42925637570158	269.83132423224265	2.2665376162133337	0.9964601668189793
0.011472477664243683	3.416748621795077e-25	2.99190143262287e8	9.468486730620225e24	89.42925637570158	269.83132423224265	2.2665376162133337	0.9964601668189793
0.011517592606684926	3.54335833230458e-25	2.99190143262287e8	9.468486730620225e24	89.42925637570158	269.83132423224265	2.2665376162133337	0.9964601668189793
0.011562884961372286	3.6708830102164077e-25	2.99190143262287e8	9.468486730620225e24	89.42925637570158	269.83132423224265	2.2665376162133337	0.9964601668189793
0.011608355425970609	3.7990758957003434e-25	2.99190143262287e8	9.468486730620225e24	89.42925637570158	269.83132423224265	2.2665376162133337	0.9964601668189793
0.011654004700888081	3.927684281526608e-25	2.99190143262287e8	9.468486730620225e24	89.42925637570158	269.83132423224265	2.2665376162133337	0.9964601668189793
0.0116998334892874	4.0564494148780927e-25	2.99190143262287e8	9.468486730620225e24	89.42925637570158	269.83132423224265	2.2665376162133337	0.9964601668189793
0.011745842497096277	4.185106397763656e-25	2.99190143262287e8	9.468486730620225e24	89.42925637570158	269.83132423224265	2.2665376162133337	0.9964601668189793
0.01179203243301844	4.3133840860172585e-25	2.99190143262287e8	9.468486730620225e24	89.42925637570158	269.83132423224265	2.2665376162133337	0.9964601668189793
0.011838404008544709	4.441004986863037e-25	2.99190143262287e8	9.468486730620225e24	89.42925637570158	269.83132423224265	2.2665376162133337	0.9964601668189793
0.011884957937963658	4.567685155026082e-25	2.99190143262287e8	9.468486730620225e24	89.42925637570158	269.83132423224265	2.2665376162133337	0.9964601668189793
0.01193169493837277	4.6937055076067165e-25	2.99190143262287e8	9.468486730620225e24	89.42925637570158	269.83132423224265	2.2665376162133337	0.9964601668189793
0.011978615729689618	4.823254119452771e-25	2.99190143262287e8	9.468486730620225e24	89.42925637570158	269.83132423224265	2.2665376162133337	0.9964601668189793
0.01202572103466262	4.957022079813439e-25	2.99190143262287e8	9.468486730620225e24	89.42925637570158	269.83132423224265	2.2665376162133337	0.9964601668189793
0.012073011578882565	5.094746028763688e-25	2.99190143262287e8	9.468486730620225e24	89.42925637570158	269.83132423224265	2.2665376162133337	0.9964601668189793
0.012120488090793444	5.236155702644294e-25	2.99190143262287e8	9.468486730620225e24	89.42925637570158	269.83132423224265	2.2665376162133337	0.9964601668189793
0.012168151301703815	5.380973817299449e-25	2.99190143262287e8	9.468486730620225e24	89.42925637570158	269.83132423224265	2.2665376162133337	0.9964601668189793
0.012216001945798218	5.52891594963552e-25	2.99190143262287e8	9.468486730620225e24	89.42925637570158	269.83132423224265	2.2665376162133337	0.9964601668189793
0.012264040760148191	5.679690417476988e-25	2.99190143262287e8	9.468486730620225e24	89.42925637570158	269.83132423224265	2.2665376162133337	0.9964601668189793
0.012312268484723764	5.832998157699862e-25	2.99190143262287e8	9.468486730620225e24	89.42925637570158	269.83132423224265	2.2665376162133337	0.9964601668189793
0.01236068586240502	5.9885326026183805e-25	2.99190143262287e8	9.468486730620225e24	89.42925637570158	269.83132423224265	2.2665376162133337	0.9964601668189793
0.012409293638993173	6.1459795546000385e-25	2.99190143262287e8	9.468486730620225e24	89.42925637570158	269.83132423224265	2.2665376162133337	0.9964601668189793
0.012458092563222464	6.305017058889757e-25	2.99190143262287e8	9.468486730620225e24	89.42925637570158	269.83132423224265	2.2665376162133337	0.9964601668189793
0.012507083386771348	6.465315274614373e-25	2.99190143262287e8	9.468486730620225e24	89.42925637570158	269.83132423224265	2.2665376162133337	0.9964601668189793
0.012556266864274211	6.626536343947535e-25	2.99190143262287e8	9.468486730620225e24	89.42925637570158	269.83132423224265	2.2665376162133337	0.9964601668189793
0.01260564375333316	6.788334259409124e-25	2.99190143262287e8	9.468486730620225e24	89.42925637570158	269.83132423224265	2.2665376162133337	0.9964601668189793
0.012655214814529376	6.950354729272836e-25	2.99190143262287e8	9.468486730620225e24	89.42925637570158	269.83132423224265	2.2665376162133337	0.9964601668189793
0.01270498081143499	7.1122350410600935e-25	2.99190143262287e8	9.468486730620225e24	89.42925637570158	269.83132423224265	2.2665376162133337	0.9964601668189793
0.012754942510624995	7.273603923093425e-25	2.99190143262287e8	9.468486730620225e24	89.42925637570158	269.83132423224265	2.2665376162133337	0.9964601668189793
0.012805100681688697	7.4340814040820295e-25	2.99190143262287e8	9.468486730620225e24	89.42925637570158	269.83132423224265	2.2665376162133337	0.9964601668189793
0.012855456097241976	7.5932786707178e-25	2.99190143262287e8	9.468486730620225e24	89.42925637570158	269.83132423224265	2.2665376162133337	0.9964601668189793
0.012906009532938837	7.752054582131629e-25	2.99190143262287e8	9.468486730620225e24	89.42925637570158	269.83132423224265	2.2665376162133337	0.9964601668189793
0.012956761767483496	7.91306527318487e-25	2.99190143262287e8	9.468486730620225e24	89.42925637570158	269.83132423224265	2.2665376162133337	0.9964601668189793
0.013007713582642553	8.076437524860354e-25	2.99190143262287e8	9.468486730620225e24	89.42925637570158	269.83132423224265	2.2665376162133337	0.9964601668189793
0.013058865763256693	8.242194244251192e-25	2.99190143262287e8	9.468486730620225e24	89.42925637570158	269.83132423224265	2.2665376162133337	0.9964601668189793
0.013110219097252962	8.410358535865025e-25	2.99190143262287e8	9.468486730620225e24	89.42925637570158	269.83132423224265	2.2665376162133337	0.9964601668189793
0.013161774375657041	8.580953703246658e-25	2.99190143262287e8	9.468486730620225e24	89.42925637570158	269.83132423224265	2.2665376162133337	0.9964601668189793
0.013213532392605068	8.75400325061201e-25	2.99190143262287e8	9.468486730620225e24	89.42925637570158	269.83132423224265	2.2665376162133337	0.9964601668189793
0.013265493945356296	8.929530884497928e-25	2.99190143262287e8	9.468486730620225e24	89.42925637570158	269.83132423224265	2.2665376162133337	0.9964601668189793
0.013317659834305001	9.10756051542251e-25	2.99190143262287e8	9.468486730620225e24	89.42925637570158	269.83132423224265	2.2665376162133337	0.9964601668189793
0.013370030862992963	9.288116259560544e-25	2.99190143262287e8	9.468486730620225e24	89.42925637570158	269.83132423224265	2.2665376162133337	0.9964601668189793
0.013422607838122018	9.47122244043259e-25	2.99190143262287e8	9.468486730620225e24	89.42925637570158	269.83132423224265	2.2665376162133337	0.9964601668189793
0.013475391569566153	9.656903590605751e-25	2.99190143262287e8	9.468486730620225e24	89.42925637570158	269.83132423224265	2.2665376162133337	0.9964601668189793
0.01352838287038414	9.84518445340994e-25	2.99190143262287e8	9.468486730620225e24	89.42925637570158	269.83132423224265	2.2665376162133337	0.9964601668189793
0.01358158255683223	1.0036089984667944e-24	2.99190143262287e8	9.468486730620225e24	89.42925637570158	269.83132423224265	2.2665376162133337	0.9964601668189793
0.01363499144837634	1.0229645354437379e-24	2.99190143262287e8	9.468486730620225e24	89.42925637570158	269.83132423224265	2.2665376162133337	0.9964601668189793
0.013688610367705127	1.0425875948769704e-24	2.99190143262287e8	9.468486730620225e24	89.42925637570158	269.83132423224265	2.2665376162133337	0.9964601668189793
0.01374244014074224	1.0624807371480188e-24	2.99190143262287e8	9.468486730620225e24	89.42925637570158	269.83132423224265	2.2665376162133337	0.9964601668189793
0.01379648159665926	1.0826465445934356e-24	2.99190143262287e8	9.468486730620225e24	89.42925637570158	269.83132423224265	2.2665376162133337	0.9964601668189793
0.013850735567888583	1.1030876216848581e-24	2.99190143262287e8	9.468486730620225e24	89.42925637570158	269.83132423224265	2.2665376162133337	0.9964601668189793
0.013905202890135962	1.1238065952103468e-24	2.99190143262287e8	9.468486730620225e24	89.42925637570158	269.83132423224265	2.2665376162133337	0.9964601668189793
0.013959884402393496	1.1448061144573427e-24	2.99190143262287e8	9.468486730620225e24	89.42925637570158	269.83132423224265	2.2665376162133337	0.9964601668189793
0.014014780946952769	1.1660888513971278e-24	2.99190143262287e8	9.468486730620225e24	89.42925637570158	269.83132423224265	2.2665376162133337	0.9964601668189793
0.01406989336941739	1.1876575008705201e-24	2.99190143262287e8	9.468486730620225e24	89.42925637570158	269.83132423224265	2.2665376162133337	0.9964601668189793
0.014125222518716505	1.2095147807754142e-24	2.99190143262287e8	9.468486730620225e24	89.42925637570158	269.83132423224265	2.2665376162133337	0.9964601668189793
0.014180769247117453	1.2316634322554696e-24	2.99190143262287e8	9.468486730620225e24	89.42925637570158	269.83132423224265	2.2665376162133337	0.9964601668189793
0.014236534410239064	1.2541062198905611e-24	2.99190143262287e8	9.468486730620225e24	89.42925637570158	269.83132423224265	2.2665376162133337	0.9964601668189793
0.01429251886706503	1.2768459318887438e-24	2.99190143262287e8	9.468486730620225e24	89.42925637570158	269.83132423224265	2.2665376162133337	0.9964601668189793
0.014348723479956776	1.2998853802795628e-24	2.99190143262287e8	9.468486730620225e24	89.42925637570158	269.83132423224265	2.2665376162133337	0.9964601668189793
0.01440514911466692	1.3232274011091113e-24	2.99190143262287e8	9.468486730620225e24	89.42925637570158	269.83132423224265	2.2665376162133337	0.9964601668189793
0.014461796640352784	1.3468748546366685e-24	2.99190143262287e8	9.468486730620225e24	89.42925637570158	269.83132423224265	2.2665376162133337	0.9964601668189793
0.014518666929589372	1.3708306255326697e-24	2.99190143262287e8	9.468486730620225e24	89.42925637570158	269.83132423224265	2.2665376162133337	0.9964601668189793
0.014575760858383278	1.3950976230786216e-24	2.99190143262287e8	9.468486730620225e24	89.42925637570158	269.83132423224265	2.2665376162133337	0.9964601668189793
0.014633079306185778	1.4196787813682783e-24	2.99190143262287e8	9.468486730620225e24	89.42925637570158	269.83132423224265	2.2665376162133337	0.9964601668189793
0.014690623155906541	1.4445770595106383e-24	2.99190143262287e8	9.468486730620225e24	89.42925637570158	269.83132423224265	2.2665376162133337	0.9964601668189793
0.01474839329392741	1.4697954418346177e-24	2.99190143262287e8	9.468486730620225e24	89.42925637570158	269.83132423224265	2.2665376162133337	0.9964601668189793
0.014806390610115712	1.4953369380951093e-24	2.99190143262287e8	9.468486730620225e24	89.42925637570158	269.83132423224265	2.2665376162133337	0.9964601668189793
0.01486461599783812	1.5212045836809213e-24	2.99190143262287e8	9.468486730620225e24	89.42925637570158	269.83132423224265	2.2665376162133337	0.9964601668189793
0.014923070353974612	1.5474014398244032e-24	2.99190143262287e8	9.468486730620225e24	89.42925637570158	269.83132423224265	2.2665376162133337	0.9964601668189793
0.01498175457893186	1.5739305938124807e-24	2.99190143262287e8	9.468486730620225e24	89.42925637570158	269.83132423224265	2.2665376162133337	0.9964601668189793
0.015040669576657586	1.6007951591997822e-24	2.99190143262287e8	9.468486730620225e24	89.42925637570158	269.83132423224265	2.2665376162133337	0.9964601668189793
0.015099816254654053	1.6279982760230722e-24	2.99190143262287e8	9.468486730620225e24	89.42925637570158	269.83132423224265	2.2665376162133337	0.9964601668189793
0.015159195523992232	1.6555431110176696e-24	2.99190143262287e8	9.468486730620225e24	89.42925637570158	269.83132423224265	2.2665376162133337	0.9964601668189793
0.01521880829932602	1.6834328578356226e-24	2.99190143262287e8	9.468486730620225e24	89.42925637570158	269.83132423224265	2.2665376162133337	0.9964601668189793
0.015278655498905964	1.7116707372653567e-24	2.99190143262287e8	9.468486730620225e24	89.42925637570158	269.83132423224265	2.2665376162133337	0.9964601668189793
0.015338738044593573	1.740259997453349e-24	2.99190143262287e8	9.468486730620225e24	89.42925637570158	269.83132423224265	2.2665376162133337	0.9964601668189793
0.015399056861875732	1.76920391412759e-24	2.99190143262287e8	9.468486730620225e24	89.42925637570158	269.83132423224265	2.2665376162133337	0.9964601668189793
0.015459612879878496	1.7985057908225245e-24	2.99190143262287e8	9.468486730620225e24	89.42925637570158	269.83132423224265	2.2665376162133337	0.9964601668189793
0.015520407031381916	1.828168959106259e-24	2.99190143262287e8	9.468486730620225e24	89.42925637570158	269.83132423224265	2.2665376162133337	0.9964601668189793
0.015581440252833964	1.85819677880913e-24	2.99190143262287e8	9.468486730620225e24	89.42925637570158	269.83132423224265	2.2665376162133337	0.9964601668189793
0.015642713484365148	1.888592638254409e-24	2.99190143262287e8	9.468486730620225e24	89.42925637570158	269.83132423224265	2.2665376162133337	0.9964601668189793
0.015704227669803186	1.919359954490863e-24	2.99190143262287e8	9.468486730620225e24	89.42925637570158	269.83132423224265	2.2665376162133337	0.9964601668189793
0.015765983756687148	1.9505021735268862e-24	2.99190143262287e8	9.468486730620225e24	89.42925637570158	269.83132423224265	2.2665376162133337	0.9964601668189793
0.015827982696282265	1.9820227705668055e-24	2.99190143262287e8	9.468486730620225e24	89.42925637570158	269.83132423224265	2.2665376162133337	0.9964601668189793
0.015890225443594762	2.0139252502490726e-24	2.99190143262287e8	9.468486730620225e24	89.42925637570158	269.83132423224265	2.2665376162133337	0.9964601668189793
0.015952712957386112	2.046213146886038e-24	2.99190143262287e8	9.468486730620225e24	89.42925637570158	269.83132423224265	2.2665376162133337	0.9964601668189793
0.016015446200188344	2.078890024706154e-24	2.99190143262287e8	9.468486730620225e24	89.42925637570158	269.83132423224265	2.2665376162133337	0.9964601668189793
0.016078426138318384	2.1119594780975913e-24	2.99190143262287e8	9.468486730620225e24	89.42925637570158	269.83132423224265	2.2665376162133337	0.9964601668189793
0.01614165374189316	2.1454251318541698e-24	2.99190143262287e8	9.468486730620225e24	89.42925637570158	269.83132423224265	2.2665376162133337	0.9964601668189793
0.016205129984844732	2.1792906414232513e-24	2.99190143262287e8	9.468486730620225e24	89.42925637570158	269.83132423224265	2.2665376162133337	0.9964601668189793
0.0162688558449349	2.213559693155303e-24	2.99190143262287e8	9.468486730620225e24	89.42925637570158	269.83132423224265	2.2665376162133337	0.9964601668189793
