r[m]	M[Msun]	rho[g/cm^3]	P[N/m^2]	n_e[pm^-3]	n_p[pm^-3]	muF_e[MeV]	B
0.010000000000000005	5.49721788427448e-38	1.1913648772207102e10	1.3219628688279956e27	3553.4465900186783	10716.46688897346	8.81928891043842	0.9873358084722903
0.01003735089214216	2.84701988100184e-25	1.1913648772207102e10	1.3219628688279956e27	3553.4465900186783	10716.46688897346	8.81928891043842	0.9873358084722903
0.010074841293198696	5.7496501362099035e-25	1.1913648772207102e10	1.3219628688279956e27	3553.4465900186783	10716.46688897346	8.81928891043842	0.9873358084722903
0.010112471724247852	8.668030896406611e-25	1.1913648772207102e10	1.3219628688279956e27	3553.4465900186783	10716.46688897346	8.81928891043842	0.9873358084722903
0.010150242708314149	1.160558050541669e-24	1.1913648772207102e10	1.3219628688279956e27	3553.4465900186783	10716.46688897346	8.81928891043842	0.9873358084722903
0.010188154770375643	1.4605524057031104e-24	1.1913648772207102e10	1.3219628688279956e27	3553.4465900186783	10716.46688897346	8.81928891043842	0.9873358084722903
0.01022620843737123	1.762827611476661e-24	1.1913648772207102e10	1.3219628688279956e27	3553.4465900186783	10716.46688897346	8.81928891043842	0.9873358084722903
0.010264404238207972	2.0649254601870303e-24	1.1913648772207102e10	1.3219628688279956e27	3553.4465900186783	10716.46688897346	8.81928891043842	0.9873358084722903
0.01030274270376845	2.370121283433736e-24	1.1913648772207102e10	1.3219628688279956e27	3553.4465900186783	10716.46688897346	8.81928891043842	0.9873358084722903
0.010341224366918174	2.678761681862933e-24	1.1913648772207102e10	1.3219628688279956e27	3553.4465900186783	10716.46688897346	8.81928891043842	0.9873358084722903
0.010379849762512832	2.990876769504985e-24	1.1913648772207102e10	1.3219628688279956e27	3553.4465900186783	10716.46688897346	8.81928891043842	0.9873358084722903
0.010418619427405969	3.3064969019578756e-24	1.1913648772207102e10	1.3219628688279956e27	3553.4465900186783	10716.46688897346	8.81928891043842	0.9873358084722903
0.01045753390045629	3.625652678254278e-24	1.1913648772207102e10	1.3219628688279956e27	3553.4465900186783	10716.46688897346	8.81928891043842	0.9873358084722903
0.010496593722535176	3.948382072686458e-24	1.1913648772207102e10	1.3219628688279956e27	3553.4465900186783	10716.46688897346	8.81928891043842	0.9873358084722903
0.010535799436534217	4.274757533371456e-24	1.1913648772207102e10	1.3219628688279956e27	3553.4465900186783	10716.46688897346	8.81928891043842	0.9873358084722903
0.010575151587372753	4.604817578982211e-24	1.1913648772207102e10	1.3219628688279956e27	3553.4465900186783	10716.46688897346	8.81928891043842	0.9873358084722903
0.010614650722005441	4.9385944242182114e-24	1.1913648772207102e10	1.3219628688279956e27	3553.4465900186783	10716.46688897346	8.81928891043842	0.9873358084722903
0.010654297389429867	5.2761205422042584e-24	1.1913648772207102e10	1.3219628688279956e27	3553.4465900186783	10716.46688897346	8.81928891043842	0.9873358084722903
0.010694092140694169	5.617428666489256e-24	1.1913648772207102e10	1.3219628688279956e27	3553.4465900186783	10716.46688897346	8.81928891043842	0.9873358084722903
0.010734035528904702	5.962558302740009e-24	1.1913648772207102e10	1.3219628688279956e27	3553.4465900186783	10716.46688897346	8.81928891043842	0.9873358084722903
0.010774128109233718	6.311585928683761e-24	1.1913648772207102e10	1.3219628688279956e27	3553.4465900186783	10716.46688897346	8.81928891043842	0.9873358084722903
0.010814370438927093	6.664553548461419e-24	1.1913648772207102e10	1.3219628688279956e27	3553.4465900186783	10716.46688897346	8.81928891043842	0.9873358084722903
0.01085476307731206	7.021495609044724e-24	1.1913648772207102e10	1.3219628688279956e27	3553.4465900186783	10716.46688897346	8.81928891043842	0.9873358084722903
0.010895306585804992	7.382446833735339e-24	1.1913648772207102e10	1.3219628688279956e27	3553.4465900186783	10716.46688897346	8.81928891043842	0.9873358084722903
0.0109360015279192	7.747442224302178e-24	1.1913648772207102e10	1.3219628688279956e27	3553.4465900186783	10716.46688897346	8.81928891043842	0.9873358084722903
0.010976848469272776	8.116519890290472e-24	1.1913648772207102e10	1.3219628688279956e27	3553.4465900186783	10716.46688897346	8.81928891043842	0.9873358084722903
0.011017847977596433	8.489732672256576e-24	1.1913648772207102e10	1.3219628688279956e27	3553.4465900186783	10716.46688897346	8.81928891043842	0.9873358084722903
0.011059000622741464	8.867128821827441e-24	1.1913648772207102e10	1.3219628688279956e27	3553.4465900186783	10716.46688897346	8.81928891043842	0.9873358084722903
0.011100306976687468	9.248755918432073e-24	1.1913648772207102e10	1.3219628688279956e27	3553.4465900186783	10716.46688897346	8.81928891043842	0.9873358084722903
0.01114176761355057	9.634662082960172e-24	1.1913648772207102e10	1.3219628688279956e27	3553.4465900186783	10716.46688897346	8.81928891043842	0.9873358084722903
0.011183383109591239	1.0024895983906742e-23	1.1913648772207102e10	1.3219628688279956e27	3553.4465900186783	10716.46688897346	8.81928891043842	0.9873358084722903
0.011225154043222312	1.0419506843587916e-23	1.1913648772207102e10	1.3219628688279956e27	3553.4465900186783	10716.46688897346	8.81928891043842	0.9873358084722903
0.011267080995017057	1.0818544444427193e-23	1.1913648772207102e10	1.3219628688279956e27	3553.4465900186783	10716.46688897346	8.81928891043842	0.9873358084722903
0.011309164547717236	1.1222059135312565e-23	1.1913648772207102e10	1.3219628688279956e27	3553.4465900186783	10716.46688897346	8.81928891043842	0.9873358084722903
0.011351405286241203	1.1630101838025657e-23	1.1913648772207102e10	1.3219628688279956e27	3553.4465900186783	10716.46688897346	8.81928891043842	0.9873358084722903
0.01139380379769203	1.2042724053743629e-23	1.1913648772207102e10	1.3219628688279956e27	3553.4465900186783	10716.46688897346	8.81928891043842	0.9873358084722903
0.011436360671365674	1.2459977869614801e-23	1.1913648772207102e10	1.3219628688279956e27	3553.4465900186783	10716.46688897346	8.81928891043842	0.9873358084722903
0.01147907649875917	1.2881915965408555e-23	1.1913648772207102e10	1.3219628688279956e27	3553.4465900186783	10716.46688897346	8.81928891043842	0.9873358084722903
0.011521951873578839	1.3308591620240557e-23	1.1913648772207102e10	1.3219628688279956e27	3553.4465900186783	10716.46688897346	8.81928891043842	0.9873358084722903
0.011564987391748553	1.37400587193742e-23	1.1913648772207102e10	1.3219628688279956e27	3553.4465900186783	10716.46688897346	8.81928891043842	0.9873358084722903
0.01160818365141801	1.4176371761098843e-23	1.1913648772207102e10	1.3219628688279956e27	3553.4465900186783	10716.46688897346	8.81928891043842	0.9873358084722903
0.011651541252971052	1.4617585863686086e-23	1.1913648772207102e10	1.3219628688279956e27	3553.4465900186783	10716.46688897346	8.81928891043842	0.9873358084722903
0.01169506079903401	1.5063756772424628e-23	1.1913648772207102e10	1.3219628688279956e27	3553.4465900186783	10716.46688897346	8.81928891043842	0.9873358084722903
0.011738742894484075	1.5514940866734917e-23	1.1913648772207102e10	1.3219628688279956e27	3553.4465900186783	10716.46688897346	8.81928891043842	0.9873358084722903
0.01178258814645771	1.5971195167364053e-23	1.1913648772207102e10	1.3219628688279956e27	3553.4465900186783	10716.46688897346	8.81928891043842	0.9873358084722903
0.011826597164359135	1.6432577343662937e-23	1.1913648772207102e10	1.3219628688279956e27	3553.4465900186783	10716.46688897346	8.81928891043842	0.9873358084722903
0.011870770559868602	1.6899145720943076e-23	1.1913648772207102e10	1.3219628688279956e27	3553.4465900186783	10716.46688897346	8.81928891043842	0.9873358084722903
0.011915108946951195	1.7370959287921692e-23	1.1913648772207102e10	1.3219628688279956e27	3553.4465900186783	10716.46688897346	8.81928891043842	0.9873358084722903
0.011959612941865153	1.7848077704245958e-23	1.1913648772207102e10	1.3219628688279956e27	3553.4465900186783	10716.46688897346	8.81928891043842	0.9873358084722903
0.012004283163170504	1.833056130810525e-23	1.1913648772207102e10	1.3219628688279956e27	3553.4465900186783	10716.46688897346	8.81928891043842	0.9873358084722903
0.01204912023173765	1.8818471123928617e-23	1.1913648772207102e10	1.3219628688279956e27	3553.4465900186783	10716.46688897346	8.81928891043842	0.9873358084722903
0.012094124770755997	1.931186887016961e-23	1.1913648772207102e10	1.3219628688279956e27	3553.4465900186783	10716.46688897346	8.81928891043842	0.9873358084722903
0.012139297405742622	1.9810816967179086e-23	1.1913648772207102e10	1.3219628688279956e27	3553.4465900186783	10716.46688897346	8.81928891043842	0.9873358084722903
0.012184638764550965	2.0315378545167155e-23	1.1913648772207102e10	1.3219628688279956e27	3553.4465900186783	10716.46688897346	8.81928891043842	0.9873358084722903
0.01223014947737955	2.0825617452255222e-23	1.1913648772207102e10	1.3219628688279956e27	3553.4465900186783	10716.46688897346	8.81928891043842	0.9873358084722903
0.012275830176780753	2.1341598262619122e-23	1.1913648772207102e10	1.3219628688279956e27	3553.4465900186783	10716.46688897346	8.81928891043842	0.9873358084722903
0.012321681497669587	2.1863386284724318e-23	1.1913648772207102e10	1.3219628688279956e27	3553.4465900186783	10716.46688897346	8.81928891043842	0.9873358084722903
0.01236770407733253	2.2391047569654377e-23	1.1913648772207102e10	1.3219628688279956e27	3553.4465900186783	10716.46688897346	8.81928891043842	0.9873358084722903
0.012413898555436382	2.2924648919533768e-23	1.1913648772207102e10	1.3219628688279956e27	3553.4465900186783	10716.46688897346	8.81928891043842	0.9873358084722903
0.012460265574037182	2.3464257896045934e-23	1.1913648772207102e10	1.3219628688279956e27	3553.4465900186783	10716.46688897346	8.81928891043842	0.9873358084722903
0.012506805777589027	2.4009942829046546e-23	1.1913648772207102e10	1.3219628688279956e27	3553.4465900186783	10716.46688897346	8.81928891043842	0.9873358084722903
0.012553519812953188	2.4561772825277134e-23	1.1913648772207102e10	1.3219628688279956e27	3553.4465900186783	10716.46688897346	8.81928891043842	0.9873358084722903
0.012600408329406988	2.5119817777174094e-23	1.1913648772207102e10	1.3219628688279956e27	3553.4465900186783	10716.46688897346	8.81928891043842	0.9873358084722903
0.012647471978652866	2.568414837177918e-23	1.1913648772207102e10	1.3219628688279956e27	3553.4465900186783	10716.46688897346	8.81928891043842	0.9873358084722903
0.012694711414827423	2.6254836099750263e-23	1.1913648772207102e10	1.3219628688279956e27	3553.4465900186783	10716.46688897346	8.81928891043842	0.9873358084722903
0.012742127294510523	2.6831953264474117e-23	1.1913648772207102e10	1.3219628688279956e27	3553.4465900186783	10716.46688897346	8.81928891043842	0.9873358084722903
0.012789720276734409	2.741557299128222e-23	1.1913648772207102e10	1.3219628688279956e27	3553.4465900186783	10716.46688897346	8.81928891043842	0.9873358084722903
0.012837491022992897	2.8005769236771205e-23	1.1913648772207102e10	1.3219628688279956e27	3553.4465900186783	10716.46688897346	8.81928891043842	0.9873358084722903
0.012885440197250466	2.8602616798227164e-23	1.1913648772207102e10	1.3219628688279956e27	3553.4465900186783	10716.46688897346	8.81928891043842	0.9873358084722903
0.012933568465951631	2.920619132315959e-23	1.1913648772207102e10	1.3219628688279956e27	3553.4465900186783	10716.46688897346	8.81928891043842	0.9873358084722903
0.012981876498030124	2.9816569318940237e-23	1.1913648772207102e10	1.3219628688279956e27	3553.4465900186783	10716.46688897346	8.81928891043842	0.9873358084722903
0.013030364964918193	3.043382816255233e-23	1.1913648772207102e10	1.3219628688279956e27	3553.4465900186783	10716.46688897346	8.81928891043842	0.9873358084722903
0.013079034540555949	3.10580461104498e-23	1.1913648772207102e10	1.3219628688279956e27	3553.4465900186783	10716.46688897346	8.81928891043842	0.9873358084722903
0.013127885901400729	3.168930230852829e-23	1.1913648772207102e10	1.3219628688279956e27	3553.4465900186783	10716.46688897346	8.81928891043842	0.9873358084722903
0.013176919726436502	3.232767680220851e-23	1.1913648772207102e10	1.3219628688279956e27	3553.4465900186783	10716.46688897346	8.81928891043842	0.9873358084722903
0.013226136697183298	3.297325054663399e-23	1.1913648772207102e10	1.3219628688279956e27	3553.4465900186783	10716.46688897346	8.81928891043842	0.9873358084722903
0.013275537497706711	3.362610541698426e-23	1.1913648772207102e10	1.3219628688279956e27	3553.4465900186783	10716.46688897346	8.81928891043842	0.9873358084722903
0.013325122814627308	3.4286324218903295e-23	1.1913648772207102e10	1.3219628688279956e27	3553.4465900186783	10716.46688897346	8.81928891043842	0.9873358084722903
0.013374893337130317	3.49539840529365e-23	1.1913648772207102e10	1.3219628688279956e27	3553.4465900186783	10716.46688897346	8.81928891043842	0.9873358084722903
0.013424849756975115	3.5629153767917024e-23	1.1913648772207102e10	1.3219628688279956e27	3553.4465900186783	10716.46688897346	8.81928891043842	0.9873358084722903
0.013474992768504855	3.6311917233097894e-23	1.1913648772207102e10	1.3219628688279956e27	3553.4465900186783	10716.46688897346	8.81928891043842	0.9873358084722903
0.013525323068656126	3.700235985669701e-23	1.1913648772207102e10	1.3219628688279956e27	3553.4465900186783	10716.46688897346	8.81928891043842	0.9873358084722903
0.013575841356968644	3.7700568007533176e-23	1.1913648772207102e10	1.3219628688279956e27	3553.4465900186783	10716.46688897346	8.81928891043842	0.9873358084722903
0.013626548335594957	3.8406629025830184e-23	1.1913648772207102e10	1.3219628688279956e27	3553.4465900186783	10716.46688897346	8.81928891043842	0.9873358084722903
0.01367744470931025	3.91206312341428e-23	1.1913648772207102e10	1.3219628688279956e27	3553.4465900186783	10716.46688897346	8.81928891043842	0.9873358084722903
0.013728531185522022	3.9842663948403557e-23	1.1913648772207102e10	1.3219628688279956e27	3553.4465900186783	10716.46688897346	8.81928891043842	0.9873358084722903
0.013779808474280085	4.0572817489097986e-23	1.1913648772207102e10	1.3219628688279956e27	3553.4465900186783	10716.46688897346	8.81928891043842	0.9873358084722903
0.013831277288286323	4.131118319256115e-23	1.1913648772207102e10	1.3219628688279956e27	3553.4465900186783	10716.46688897346	8.81928891043842	0.9873358084722903
0.013882938342904622	4.20578534224037e-23	1.1913648772207102e10	1.3219628688279956e27	3553.4465900186783	10716.46688897346	8.81928891043842	0.9873358084722903
0.013934792356170822	4.281292158106574e-23	1.1913648772207102e10	1.3219628688279956e27	3553.4465900186783	10716.46688897346	8.81928891043842	0.9873358084722903
0.013986840048802688	4.3576482121500747e-23	1.1913648772207102e10	1.3219628688279956e27	3553.4465900186783	10716.46688897346	8.81928891043842	0.9873358084722903
0.014039082144209928	4.4348630558990807e-23	1.1913648772207102e10	1.3219628688279956e27	3553.4465900186783	10716.46688897346	8.81928891043842	0.9873358084722903
0.014091519368504248	4.5129463483094764e-23	1.1913648772207102e10	1.3219628688279956e27	3553.4465900186783	10716.46688897346	8.81928891043842	0.9873358084722903
0.014144152450509486	4.591907856973158e-23	1.1913648772207102e10	1.3219628688279956e27	3553.4465900186783	10716.46688897346	8.81928891043842	0.9873358084722903
0.014196982121771602	4.6717574593396546e-23	1.1913648772207102e10	1.3219628688279956e27	3553.4465900186783	10716.46688897346	8.81928891043842	0.9873358084722903
0.01425000911656904	4.7525051439520166e-23	1.1913648772207102e10	1.3219628688279956e27	3553.4465900186783	10716.46688897346	8.81928891043842	0.9873358084722903
0.014303234171922807	4.834161011696116e-23	1.1913648772207102e10	1.3219628688279956e27	3553.4465900186783	10716.46688897346	8.81928891043842	0.9873358084722903
0.014356658027606755	4.9167352770642337e-23	1.1913648772207102e10	1.3219628688279956e27	3553.4465900186783	10716.46688897346	8.81928891043842	0.9873358084722903
0.014410281426157846	5.000238269432787e-23	1.1913648772207102e10	1.3219628688279956e27	3553.4465900186783	10716.46688897346	8.81928891043842	0.9873358084722903
0.014464105112886497	5.0846804343545014e-23	1.1913648772207102e10	1.3219628688279956e27	3553.4465900186783	10716.46688897346	8.81928891043842	0.9873358084722903
0.014518129835886918	5.1700723348650136e-23	1.1913648772207102e10	1.3219628688279956e27	3553.4465900186783	10716.46688897346	8.81928891043842	0.9873358084722903
0.014572356346047517	5.256424652804245e-23	1.1913648772207102e10	1.3219628688279956e27	3553.4465900186783	10716.46688897346	8.81928891043842	0.9873358084722903
0.014626785397061371	5.343748190152666e-23	1.1913648772207102e10	1.3219628688279956e27	3553.4465900186783	10716.46688897346	8.81928891043842	0.9873358084722903
0.01468141774543658	5.432053870382341e-23	1.1913648772207094e10	1.3219628688279945e27	3553.4465900186765	10716.466888973457	8.81928891043842	0.9873358084722903
0.01473625415050695	5.521352739823646e-23	1.1913648772207094e10	1.3219628688279945e27	3553.4465900186765	10716.466888973457	8.81928891043842	0.9873358084722903
0.014791295374442445	5.611655969046896e-23	1.1913648772207094e10	1.3219628688279945e27	3553.4465900186765	10716.466888973457	8.81928891043842	0.9873358084722903
0.0148465421822598	5.702974854259738e-23	1.1913648772207094e10	1.3219628688279945e27	3553.4465900186765	10716.466888973457	8.81928891043842	0.9873358084722903
0.014901995341833152	5.795320818720203e-23	1.1913648772207094e10	1.3219628688279945e27	3553.4465900186765	10716.466888973457	8.81928891043842	0.9873358084722903
0.014957655623904722	5.88870541416569e-23	1.1913648772207094e10	1.3219628688279945e27	3553.4465900186765	10716.466888973457	8.81928891043842	0.9873358084722903
0.015013523802095514	5.983140322257966e-23	1.1913648772207094e10	1.3219628688279945e27	3553.4465900186765	10716.466888973457	8.81928891043842	0.9873358084722903
0.015069600652916088	6.078637356044482e-23	1.1913648772207094e10	1.3219628688279945e27	3553.4465900186765	10716.466888973457	8.81928891043842	0.9873358084722903
0.01512588695577736	6.175208461436102e-23	1.1913648772207094e10	1.3219628688279945e27	3553.4465900186765	10716.466888973457	8.81928891043842	0.9873358084722903
0.015182383493001324	6.272865718701256e-23	1.1913648772207094e10	1.3219628688279945e27	3553.4465900186765	10716.466888973457	8.81928891043842	0.9873358084722903
0.015239091049832116	6.371621343977407e-23	1.1913648772207094e10	1.3219628688279945e27	3553.4465900186765	10716.466888973457	8.81928891043842	0.9873358084722903
0.01529601041444679	6.471487690798956e-23	1.1913648772207094e10	1.3219628688279945e27	3553.4465900186765	10716.466888973457	8.81928891043842	0.9873358084722903
0.015353142377966316	6.572477251642639e-23	1.1913648772207094e10	1.3219628688279945e27	3553.4465900186765	10716.466888973457	8.81928891043842	0.9873358084722903
0.015410487734466571	6.674602659490237e-23	1.1913648772207094e10	1.3219628688279945e27	3553.4465900186765	10716.466888973457	8.81928891043842	0.9873358084722903
0.015468047280989376	6.777876689408845e-23	1.1913648772207094e10	1.3219628688279945e27	3553.4465900186765	10716.466888973457	8.81928891043842	0.9873358084722903
0.015525821817553574	6.88231226014895e-23	1.1913648772207094e10	1.3219628688279945e27	3553.4465900186765	10716.466888973457	8.81928891043842	0.9873358084722903
0.015583812147166148	6.987922435760454e-23	1.1913648772207094e10	1.3219628688279945e27	3553.4465900186765	10716.466888973457	8.81928891043842	0.9873358084722903
0.015642019075833416	7.094720427226921e-23	1.1913648772207094e10	1.3219628688279945e27	3553.4465900186765	10716.466888973457	8.81928891043842	0.9873358084722903
0.015700443412572117	7.202719594117988e-23	1.1913648772207094e10	1.3219628688279945e27	3553.4465900186765	10716.466888973457	8.81928891043842	0.9873358084722903
0.015759085969420814	7.311933446260802e-23	1.1913648772207094e10	1.3219628688279945e27	3553.4465900186765	10716.466888973457	8.81928891043842	0.9873358084722903
0.01581794756145109	7.422375645429843e-23	1.1913648772207094e10	1.3219628688279945e27	3553.4465900186765	10716.466888973457	8.81928891043842	0.9873358084722903
