r[m]	M[Msun]	rho[g/cm^3]	P[N/m^2]	n_e[pm^-3]	n_p[pm^-3]	muF_e[MeV]	B
0.010000000000000005	9.816460507633e-40	2.1380959927862445e8	6.004732909518073e24	63.91220595652314	192.85065043301842	1.9828235340136067	0.9968723953859808
0.010039486450443499	5.416671610398768e-27	2.1380959927862445e8	6.004732909518073e24	63.91220595652314	192.85065043301842	1.9828235340136067	0.9968723953859808
0.010079128818863813	1.1006770468088527e-26	2.1380959927862445e8	6.004732909518073e24	63.91220595652314	192.85065043301842	1.9828235340136067	0.9968723953859808
0.010118927720925777	1.6750445921530555e-26	2.1380959927862445e8	6.004732909518073e24	63.91220595652314	192.85065043301842	1.9828235340136067	0.9968723953859808
0.010158883774725099	2.2627347910112253e-26	2.1380959927862445e8	6.004732909518073e24	63.91220595652314	192.85065043301842	1.9828235340136067	0.9968723953859808
0.010198997600798287	2.861661858602506e-26	2.1380959927862445e8	6.004732909518073e24	63.91220595652314	192.85065043301842	1.9828235340136067	0.9968723953859808
0.010239269822131969	3.4696883815706504e-26	2.1380959927862445e8	6.004732909518073e24	63.91220595652314	192.85065043301842	1.9828235340136067	0.9968723953859808
0.010279701064172884	4.084624455943776e-26	2.1380959927862445e8	6.004732909518073e24	63.91220595652314	192.85065043301842	1.9828235340136067	0.9968723953859808
0.010320291954837281	4.704226812728387e-26	2.1380959927862445e8	6.004732909518073e24	63.91220595652314	192.85065043301842	1.9828235340136067	0.9968723953859808
0.010361043124520986	5.326197930992626e-26	2.1380959927862445e8	6.004732909518073e24	63.91220595652314	192.85065043301842	1.9828235340136067	0.9968723953859808
0.010401955206108874	5.948185138253448e-26	2.1380959927862445e8	6.004732909518073e24	63.91220595652314	192.85065043301842	1.9828235340136067	0.9968723953859808
0.010443028834985019	6.56777969801858e-26	2.1380959927862445e8	6.004732909518073e24	63.91220595652314	192.85065043301842	1.9828235340136067	0.9968723953859808
0.010484264649042237	7.18280144329889e-26	2.1380959927862445e8	6.004732909518073e24	63.91220595652314	192.85065043301842	1.9828235340136067	0.9968723953859808
0.010525663288692325	7.808886791790869e-26	2.1380959927862445e8	6.004732909518073e24	63.91220595652314	192.85065043301842	1.9828235340136067	0.9968723953859808
0.010567225396875666	8.454455873345943e-26	2.1380959927862445e8	6.004732909518073e24	63.91220595652314	192.85065043301842	1.9828235340136067	0.9968723953859808
0.01060895161907156	9.11709795391497e-26	2.1380959927862445e8	6.004732909518073e24	63.91220595652314	192.85065043301842	1.9828235340136067	0.9968723953859808
0.010650842603307904	9.79434190952344e-26	2.1380959927862445e8	6.004732909518073e24	63.91220595652314	192.85065043301842	1.9828235340136067	0.9968723953859808
0.010692899000171601	1.0483655214394177e-25	2.1380959927862445e8	6.004732909518073e24	63.91220595652314	192.85065043301842	1.9828235340136067	0.9968723953859808
0.010735121462818357	1.1182442914533008e-25	2.1380959927862445e8	6.004732909518073e24	63.91220595652314	192.85065043301842	1.9828235340136067	0.9968723953859808
0.010777510646982957	1.1888046586601848e-25	2.1380959927862445e8	6.004732909518073e24	63.91220595652314	192.85065043301842	1.9828235340136067	0.9968723953859808
0.01082006721098959	1.2597743281876996e-25	2.1380959927862445e8	6.004732909518073e24	63.91220595652314	192.85065043301842	1.9828235340136067	0.9968723953859808
0.010862791815761746	1.3308744455085923e-25	2.1380959927862445e8	6.004732909518073e24	63.91220595652314	192.85065043301842	1.9828235340136067	0.9968723953859808
0.01090568512483285	1.401819487794192e-25	2.1380959927862445e8	6.004732909518073e24	63.91220595652314	192.85065043301842	1.9828235340136067	0.9968723953859808
0.010948747804356212	1.4723171537149623e-25	2.1380959927862445e8	6.004732909518073e24	63.91220595652314	192.85065043301842	1.9828235340136067	0.9968723953859808
0.010991980523115714	1.5431923469708085e-25	2.1380959927862445e8	6.004732909518073e24	63.91220595652314	192.85065043301842	1.9828235340136067	0.9968723953859808
0.011035383952535853	1.616481681233882e-25	2.1380959927862445e8	6.004732909518073e24	63.91220595652314	192.85065043301842	1.9828235340136067	0.9968723953859808
0.011078958766692525	1.6921142475854513e-25	2.1380959927862445e8	6.004732909518073e24	63.91220595652314	192.85065043301842	1.9828235340136067	0.9968723953859808
0.01112270564232313	1.7699543323527226e-25	2.1380959927862445e8	6.004732909518073e24	63.91220595652314	192.85065043301842	1.9828235340136067	0.9968723953859808
0.011166625258837447	1.8498626215476987e-25	2.1380959927862445e8	6.004732909518073e24	63.91220595652314	192.85065043301842	1.9828235340136067	0.9968723953859808
0.011210718298327815	1.9316961395993037e-25	2.1380959927862445e8	6.004732909518073e24	63.91220595652314	192.85065043301842	1.9828235340136067	0.9968723953859808
0.011254985445580103	2.0153081872014647e-25	2.1380959927862445e8	6.004732909518073e24	63.91220595652314	192.85065043301842	1.9828235340136067	0.9968723953859808
0.01129942738808397	2.100548278262551e-25	2.1380959927862445e8	6.004732909518073e24	63.91220595652314	192.85065043301842	1.9828235340136067	0.9968723953859808
0.011344044816043912	2.187262075947049e-25	2.1380959927862445e8	6.004732909518073e24	63.91220595652314	192.85065043301842	1.9828235340136067	0.9968723953859808
0.011388838422389615	2.275291327794509e-25	2.1380959927862445e8	6.004732909518073e24	63.91220595652314	192.85065043301842	1.9828235340136067	0.9968723953859808
0.011433808902787078	2.364473799906331e-25	2.1380959927862445e8	6.004732909518073e24	63.91220595652314	192.85065043301842	1.9828235340136067	0.9968723953859808
0.011478956955649105	2.4546432101852123e-25	2.1380959927862445e8	6.004732909518073e24	63.91220595652314	192.85065043301842	1.9828235340136067	0.9968723953859808
0.011524283282146282	2.545629160616887e-25	2.1380959927862445e8	6.004732909518073e24	63.91220595652314	192.85065043301842	1.9828235340136067	0.9968723953859808
0.011569788586218006	2.637257068580557e-25	2.1380959927862445e8	6.004732909518073e24	63.91220595652314	192.85065043301842	1.9828235340136067	0.9968723953859808
0.011615473574583096	2.729348097174112e-25	2.1380959927862445e8	6.004732909518073e24	63.91220595652314	192.85065043301842	1.9828235340136067	0.9968723953859808
0.011661338956751144	2.8217190845434796e-25	2.1380959927862445e8	6.004732909518073e24	63.91220595652314	192.85065043301842	1.9828235340136067	0.9968723953859808
0.01170738544503315	2.914182472199834e-25	2.1380959927862445e8	6.004732909518073e24	63.91220595652314	192.85065043301842	1.9828235340136067	0.9968723953859808
0.011753613754552967	3.0065462323144206e-25	2.1380959927862445e8	6.004732909518073e24	63.91220595652314	192.85065043301842	1.9828235340136067	0.9968723953859808
0.011800024603258031	3.098613793974288e-25	2.1380959927862445e8	6.004732909518073e24	63.91220595652314	192.85065043301842	1.9828235340136067	0.9968723953859808
0.011846618711930886	3.190183968388203e-25	2.1380959927862445e8	6.004732909518073e24	63.91220595652314	192.85065043301842	1.9828235340136067	0.9968723953859808
0.011893396804199999	3.2810508730258777e-25	2.1380959927862445e8	6.004732909518073e24	63.91220595652314	192.85065043301842	1.9828235340136067	0.9968723953859808
0.011940359606551381	3.371685870631475e-25	2.1380959927862445e8	6.004732909518073e24	63.91220595652314	192.85065043301842	1.9828235340136067	0.9968723953859808
0.01198750784833949	3.465111387967487e-25	2.1380959927862445e8	6.004732909518073e24	63.91220595652314	192.85065043301842	1.9828235340136067	0.9968723953859808
0.012034842261798935	3.5615549046701204e-25	2.1380959927862445e8	6.004732909518073e24	63.91220595652314	192.85065043301842	1.9828235340136067	0.9968723953859808
0.012082363582055463	3.6608253549029516e-25	2.1380959927862445e8	6.004732909518073e24	63.91220595652314	192.85065043301842	1.9828235340136067	0.9968723953859808
0.012130072547137773	3.762726648874813e-25	2.1380959927862445e8	6.004732909518073e24	63.91220595652314	192.85065043301842	1.9828235340136067	0.9968723953859808
0.012177969897988578	3.867057587542734e-25	2.1380959927862445e8	6.004732909518073e24	63.91220595652314	192.85065043301842	1.9828235340136067	0.9968723953859808
0.012226056378476504	3.973611776085113e-25	2.1380959927862445e8	6.004732909518073e24	63.91220595652314	192.85065043301842	1.9828235340136067	0.9968723953859808
0.01227433273540731	4.082177536125437e-25	2.1380959927862445e8	6.004732909518073e24	63.91220595652314	192.85065043301842	1.9828235340136067	0.9968723953859808
0.012322799718535622	4.19253781669248e-25	2.1380959927862445e8	6.004732909518073e24	63.91220595652314	192.85065043301842	1.9828235340136067	0.9968723953859808
0.012371458080576726	4.304470103899222e-25	2.1380959927862445e8	6.004732909518073e24	63.91220595652314	192.85065043301842	1.9828235340136067	0.9968723953859808
0.012420308577217919	4.417746329322205e-25	2.1380959927862445e8	6.004732909518073e24	63.91220595652314	192.85065043301842	1.9828235340136067	0.9968723953859808
0.012469351967130641	4.532132777066892e-25	2.1380959927862445e8	6.004732909518073e24	63.91220595652314	192.85065043301842	1.9828235340136067	0.9968723953859808
0.012518589011981846	4.647389989497952e-25	2.1380959927862445e8	6.004732909518073e24	63.91220595652314	192.85065043301842	1.9828235340136067	0.9968723953859808
0.012568020476446255	4.7632726716206115e-25	2.1380959927862445e8	6.004732909518073e24	63.91220595652314	192.85065043301842	1.9828235340136067	0.9968723953859808
0.012617647128217804	4.879529594091114e-25	2.1380959927862445e8	6.004732909518073e24	63.91220595652314	192.85065043301842	1.9828235340136067	0.9968723953859808
0.012667469738021988	4.995903494842167e-25	2.1380959927862445e8	6.004732909518073e24	63.91220595652314	192.85065043301842	1.9828235340136067	0.9968723953859808
0.012717489079627423	5.112130979301017e-25	2.1380959927862445e8	6.004732909518073e24	63.91220595652314	192.85065043301842	1.9828235340136067	0.9968723953859808
0.012767705929858259	5.227942419185304e-25	2.1380959927862445e8	6.004732909518073e24	63.91220595652314	192.85065043301842	1.9828235340136067	0.9968723953859808
0.012818121068605852	5.343061849854147e-25	2.1380959927862445e8	6.004732909518073e24	63.91220595652314	192.85065043301842	1.9828235340136067	0.9968723953859808
0.01286873527884127	5.457206866199002e-25	2.1380959927862445e8	6.004732909518073e24	63.91220595652314	192.85065043301842	1.9828235340136067	0.9968723953859808
0.012919549346627058	5.571484221769141e-25	2.1380959927862445e8	6.004732909518073e24	63.91220595652314	192.85065043301842	1.9828235340136067	0.9968723953859808
0.012970564061129843	5.687449017704932e-25	2.1380959927862445e8	6.004732909518073e24	63.91220595652314	192.85065043301842	1.9828235340136067	0.9968723953859808
0.013021780214632185	5.805120476596778e-25	2.1380959927862445e8	6.004732909518073e24	63.91220595652314	192.85065043301842	1.9828235340136067	0.9968723953859808
0.013073198602545298	5.924515218734701e-25	2.1380959927862445e8	6.004732909518073e24	63.91220595652314	192.85065043301842	1.9828235340136067	0.9968723953859808
0.013124820023421033	6.045650008225456e-25	2.1380959927862445e8	6.004732909518073e24	63.91220595652314	192.85065043301842	1.9828235340136067	0.9968723953859808
0.013176645278964437	6.168541754179407e-25	2.1380959927862445e8	6.004732909518073e24	63.91220595652314	192.85065043301842	1.9828235340136067	0.9968723953859808
0.01322867517404637	6.293207511907104e-25	2.1380959927862445e8	6.004732909518073e24	63.91220595652314	192.85065043301842	1.9828235340136067	0.9968723953859808
0.01328091051671562	6.419664484124223e-25	2.1380959927862445e8	6.004732909518073e24	63.91220595652314	192.85065043301842	1.9828235340136067	0.9968723953859808
0.013333352118211897	6.547930022168154e-25	2.1380959927862445e8	6.004732909518073e24	63.91220595652314	192.85065043301842	1.9828235340136067	0.9968723953859808
0.013386000792977982	6.6780216272223405e-25	2.1380959927862445e8	6.004732909518073e24	63.91220595652314	192.85065043301842	1.9828235340136067	0.9968723953859808
0.013438857358672831	6.80995695155256e-25	2.1380959927862445e8	6.004732909518073e24	63.91220595652314	192.85065043301842	1.9828235340136067	0.9968723953859808
0.013491922636183816	6.943753799751143e-25	2.1380959927862445e8	6.004732909518073e24	63.91220595652314	192.85065043301842	1.9828235340136067	0.9968723953859808
0.013545197449639928	7.079430129993297e-25	2.1380959927862445e8	6.004732909518073e24	63.91220595652314	192.85065043301842	1.9828235340136067	0.9968723953859808
0.013598682626424125	7.217004055301431e-25	2.1380959927862445e8	6.004732909518073e24	63.91220595652314	192.85065043301842	1.9828235340136067	0.9968723953859808
0.013652378997186633	7.356493844821925e-25	2.1380959927862445e8	6.004732909518073e24	63.91220595652314	192.85065043301842	1.9828235340136067	0.9968723953859808
0.013706287395857398	7.497917925109875e-25	2.1380959927862445e8	6.004732909518073e24	63.91220595652314	192.85065043301842	1.9828235340136067	0.9968723953859808
0.013760408659659478	7.64129488142655e-25	2.1380959927862445e8	6.004732909518073e24	63.91220595652314	192.85065043301842	1.9828235340136067	0.9968723953859808
0.013814743629121606	7.786643459044987e-25	2.1380959927862445e8	6.004732909518073e24	63.91220595652314	192.85065043301842	1.9828235340136067	0.9968723953859808
0.013869293148091693	7.93398256456845e-25	2.1380959927862445e8	6.004732909518073e24	63.91220595652314	192.85065043301842	1.9828235340136067	0.9968723953859808
0.013924058063749477	8.083331267257144e-25	2.1380959927862445e8	6.004732909518073e24	63.91220595652314	192.85065043301842	1.9828235340136067	0.9968723953859808
0.013979039226620135	8.2347088003680815e-25	2.1380959927862445e8	6.004732909518073e24	63.91220595652314	192.85065043301842	1.9828235340136067	0.9968723953859808
0.014034237490587092	8.388134562503422e-25	2.1380959927862445e8	6.004732909518073e24	63.91220595652314	192.85065043301842	1.9828235340136067	0.9968723953859808
0.014089653712905461	8.5436281189712e-25	2.1380959927862445e8	6.004732909518073e24	63.91220595652314	192.85065043301842	1.9828235340136067	0.9968723953859808
0.014145288754215524	8.701209203157129e-25	2.1380959927862445e8	6.004732909518073e24	63.91220595652314	192.85065043301842	1.9828235340136067	0.9968723953859808
0.014201143478555688	8.860897717905812e-25	2.1380959927862445e8	6.004732909518073e24	63.91220595652314	192.85065043301842	1.9828235340136067	0.9968723953859808
0.014257218753376382	9.022713736915457e-25	2.1380959927862445e8	6.004732909518073e24	63.91220595652314	192.85065043301842	1.9828235340136067	0.9968723953859808
0.014313515449553048	9.18667750614134e-25	2.1380959927862445e8	6.004732909518073e24	63.91220595652314	192.85065043301842	1.9828235340136067	0.9968723953859808
0.014370034441400142	9.352809445213108e-25	2.1380959927862445e8	6.004732909518073e24	63.91220595652314	192.85065043301842	1.9828235340136067	0.9968723953859808
0.014426776606684247	9.521130148860945e-25	2.1380959927862445e8	6.004732909518073e24	63.91220595652314	192.85065043301842	1.9828235340136067	0.9968723953859808
0.014483742826638165	9.691660388355827e-25	2.1380959927862445e8	6.004732909518073e24	63.91220595652314	192.85065043301842	1.9828235340136067	0.9968723953859808
0.01454093398597414	9.864421112958729e-25	2.1380959927862445e8	6.004732909518073e24	63.91220595652314	192.85065043301842	1.9828235340136067	0.9968723953859808
0.014598350972898067	1.003943345138428e-24	2.1380959927862445e8	6.004732909518073e24	63.91220595652314	192.85065043301842	1.9828235340136067	0.9968723953859808
0.014655994679122814	1.0216718713273283e-24	2.1380959927862445e8	6.004732909518073e24	63.91220595652314	192.85065043301842	1.9828235340136067	0.9968723953859808
0.014713865999882543	1.0396298390680143e-24	2.1380959927862445e8	6.004732909518073e24	63.91220595652314	192.85065043301842	1.9828235340136067	0.9968723953859808
0.014771965833946136	1.057819415956923e-24	2.1380959927862445e8	6.004732909518073e24	63.91220595652314	192.85065043301842	1.9828235340136067	0.9968723953859808
0.014830295083631647	1.0762427881326366e-24	2.1380959927862445e8	6.004732909518073e24	63.91220595652314	192.85065043301842	1.9828235340136067	0.9968723953859808
0.014888854654819863	1.094902160427948e-24	2.1380959927862445e8	6.004732909518073e24	63.91220595652314	192.85065043301842	1.9828235340136067	0.9968723953859808
0.014947645456968596	1.113799756523372e-24	2.1380959927862445e8	6.004732909518073e24	63.91220595652314	192.85065043301842	1.9828235340136067	0.9968723953859808
0.015006668403126944	1.1329378191018567e-24	2.1380959927862445e8	6.004732909518073e24	63.91220595652314	192.85065043301842	1.9828235340136067	0.9968723953859808
0.015065924409949083	1.15231861000458e-24	2.1380959927862445e8	6.004732909518073e24	63.91220595652314	192.85065043301842	1.9828235340136067	0.9968723953859808
0.015125414397708972	1.1719444103882757e-24	2.1380959927862445e8	6.004732909518073e24	63.91220595652314	192.85065043301842	1.9828235340136067	0.9968723953859808
0.015185139290314151	1.1918175208835095e-24	2.1380959927862445e8	6.004732909518073e24	63.91220595652314	192.85065043301842	1.9828235340136067	0.9968723953859808
0.015245100015320603	1.211940261754561e-24	2.1380959927862445e8	6.004732909518073e24	63.91220595652314	192.85065043301842	1.9828235340136067	0.9968723953859808
0.015305297503946647	1.2323149730602626e-24	2.1380959927862445e8	6.004732909518073e24	63.91220595652314	192.85065043301842	1.9828235340136067	0.9968723953859808
0.015365732691087899	1.2529440148164564e-24	2.1380959927862445e8	6.004732909518073e24	63.91220595652314	192.85065043301842	1.9828235340136067	0.9968723953859808
0.015426406515331295	1.2738297671594336e-24	2.1380959927862445e8	6.004732909518073e24	63.91220595652314	192.85065043301842	1.9828235340136067	0.9968723953859808
0.015487319918970175	1.2949746305110294e-24	2.1380959927862445e8	6.004732909518073e24	63.91220595652314	192.85065043301842	1.9828235340136067	0.9968723953859808
0.015548473848018406	1.3163810257446946e-24	2.1380959927862445e8	6.004732909518073e24	63.91220595652314	192.85065043301842	1.9828235340136067	0.9968723953859808
0.01560986925222558	1.3380513943532575e-24	2.1380959927862445e8	6.004732909518073e24	63.91220595652314	192.85065043301842	1.9828235340136067	0.9968723953859808
0.015671507085091255	1.3599881986176836e-24	2.1380959927862445e8	6.004732909518073e24	63.91220595652314	192.85065043301842	1.9828235340136067	0.9968723953859808
0.015733388303880286	1.3821939217775555e-24	2.1380959927862445e8	6.004732909518073e24	63.91220595652314	192.85065043301842	1.9828235340136067	0.9968723953859808
0.01579551386963716	1.4046710682025435e-24	2.1380959927862445e8	6.004732909518073e24	63.91220595652314	192.85065043301842	1.9828235340136067	0.9968723953859808
0.015857884747201456	1.4274221635656526e-24	2.1380959927862445e8	6.004732909518073e24	63.91220595652314	192.85065043301842	1.9828235340136067	0.9968723953859808
0.015920501905222356	1.4504497550174848e-24	2.1380959927862445e8	6.004732909518073e24	63.91220595652314	192.85065043301842	1.9828235340136067	0.9968723953859808
0.0159833663161739	1.4737564113621644e-24	2.1380959927862445e8	6.004732909518073e24	63.91220595652314	192.85065043301842	1.9828235340136067	0.9968723953859808
0.016046478956370278	1.4973447232346585e-24	2.1380959927862445e8	6.004732909518073e24	63.91220595652314	192.85065043301842	1.9828235340136067	0.9968723953859808
0.01610984080598054	1.5212173032792993e-24	2.1380959927862445e8	6.004732909518073e24	63.91220595652314	192.85065043301842	1.9828235340136067	0.9968723953859808
0.016173452849044333	1.5453767863300917e-24	2.1380959927862445e8	6.004732909518073e24	63.91220595652314	192.85065043301842	1.9828235340136067	0.9968723953859808
0.016237316073486663	1.569825829592092e-24	2.1380959927862445e8	6.004732909518073e24	63.91220595652314	192.85065043301842	1.9828235340136067	0.9968723953859808
