r[m]	M[Msun]	rho[g/cm^3]	P[N/m^2]	n_e[pm^-3]	n_p[pm^-3]	muF_e[MeV]	B
0.009999999999999983	-6.602578231846305e-39	6.362469913623614e8	2.5926517438024705e25	188.6368869552968	143.51654978696936	3.0274148045669866	0.9954061293377172
0.010038932013482707	1.5876274126575636e-26	6.362469913623614e8	2.5926517438024705e25	188.6368869552968	143.51654978696936	3.0274148045669866	0.9954061293377172
0.010078015597132813	3.218898184307986e-26	6.362469913623614e8	2.5926517438024705e25	188.6368869552968	143.51654978696936	3.0274148045669866	0.9954061293377172
0.01011725134104348	4.8819978564658506e-26	6.362469913623614e8	2.5926517438024705e25	188.6368869552968	143.51654978696936	3.0274148045669866	0.9954061293377172
0.01015663983760524	6.564828532591417e-26	6.362469913623614e8	2.5926517438024705e25	188.6368869552968	143.51654978696936	3.0274148045669866	0.9954061293377172
0.010196181681514923	8.25500423441411e-26	6.362469913623614e8	2.5926517438024705e25	188.6368869552968	143.51654978696936	3.0274148045669866	0.9954061293377172
0.010235877469784627	9.939846192768892e-26	6.362469913623614e8	2.5926517438024705e25	188.6368869552968	143.51654978696936	3.0274148045669866	0.9954061293377172
0.010275727801750744	1.1640203887694538e-25	6.362469913623614e8	2.5926517438024705e25	188.6368869552968	143.51654978696936	3.0274148045669866	0.9954061293377172
0.010315733279083	1.3387808766450592e-25	6.362469913623614e8	2.5926517438024705e25	188.6368869552968	143.51654978696936	3.0274148045669866	0.9954061293377172
0.010355894505793543	1.5169894472254863e-25	6.362469913623614e8	2.5926517438024705e25	188.6368869552968	143.51654978696936	3.0274148045669866	0.9954061293377172
0.010396212088246067	1.6973176478606533e-25	6.362469913623614e8	2.5926517438024705e25	188.6368869552968	143.51654978696936	3.0274148045669866	0.9954061293377172
0.010436686635164949	1.878405398376768e-25	6.362469913623614e8	2.5926517438024705e25	188.6368869552968	143.51654978696936	3.0274148045669866	0.9954061293377172
0.01047731875764447	2.0588604741011936e-25	6.362469913623614e8	2.5926517438024705e25	188.6368869552968	143.51654978696936	3.0274148045669866	0.9954061293377172
0.010518109069158012	2.2415782317656206e-25	6.362469913623614e8	2.5926517438024705e25	188.6368869552968	143.51654978696936	3.0274148045669866	0.9954061293377172
0.010559058185567334	2.43003861997492e-25	6.362469913623614e8	2.5926517438024705e25	188.6368869552968	143.51654978696936	3.0274148045669866	0.9954061293377172
0.010600166725131872	2.6235557304743847e-25	6.362469913623614e8	2.5926517438024705e25	188.6368869552968	143.51654978696936	3.0274148045669866	0.9954061293377172
0.010641435308518066	2.8214265733188847e-25	6.362469913623614e8	2.5926517438024705e25	188.6368869552968	143.51654978696936	3.0274148045669866	0.9954061293377172
0.010682864558808743	3.022930914749373e-25	6.362469913623614e8	2.5926517438024705e25	188.6368869552968	143.51654978696936	3.0274148045669866	0.9954061293377172
0.010724455101512508	3.22733099289313e-25	6.362469913623614e8	2.5926517438024705e25	188.6368869552968	143.51654978696936	3.0274148045669866	0.9954061293377172
0.010766207564573202	3.433871229443753e-25	6.362469913623614e8	2.5926517438024705e25	188.6368869552968	143.51654978696936	3.0274148045669866	0.9954061293377172
0.010808122578379379	3.6417779372680357e-25	6.362469913623614e8	2.5926517438024705e25	188.6368869552968	143.51654978696936	3.0274148045669866	0.9954061293377172
0.010850200775773818	3.8502590238865104e-25	6.362469913623614e8	2.5926517438024705e25	188.6368869552968	143.51654978696936	3.0274148045669866	0.9954061293377172
0.010892442792063087	4.058503690773627e-25	6.362469913623614e8	2.5926517438024705e25	188.6368869552968	143.51654978696936	3.0274148045669866	0.9954061293377172
0.010934849265027127	4.265682128422746e-25	6.362469913623614e8	2.5926517438024705e25	188.6368869552968	143.51654978696936	3.0274148045669866	0.9954061293377172
0.010977420834928886	4.47227411797116e-25	6.362469913623614e8	2.5926517438024705e25	188.6368869552968	143.51654978696936	3.0274148045669866	0.9954061293377172
0.011020158144523983	4.684677753447142e-25	6.362469913623614e8	2.5926517438024705e25	188.6368869552968	143.51654978696936	3.0274148045669866	0.9954061293377172
0.01106306183907042	4.903168298087365e-25	6.362469913623614e8	2.5926517438024705e25	188.6368869552968	143.51654978696936	3.0274148045669866	0.9954061293377172
0.011106132566338264	5.126912281135e-25	6.362469913623614e8	2.5926517438024705e25	188.6368869552968	143.51654978696936	3.0274148045669866	0.9954061293377172
0.011149370976619622	5.355055768148056e-25	6.362469913623614e8	2.5926517438024705e25	188.6368869552968	143.51654978696936	3.0274148045669866	0.9954061293377172
0.011192777722738188	5.586724023511086e-25	6.362469913623614e8	2.5926517438024705e25	188.6368869552968	143.51654978696936	3.0274148045669866	0.9954061293377172
0.011236353460059266	5.821021168175993e-25	6.362469913623614e8	2.5926517438024705e25	188.6368869552968	143.51654978696936	3.0274148045669866	0.9954061293377172
0.011280098846499633	6.057029832566111e-25	6.362469913623614e8	2.5926517438024705e25	188.6368869552968	143.51654978696936	3.0274148045669866	0.9954061293377172
0.011324014542537472	6.293810804581393e-25	6.362469913623614e8	2.5926517438024705e25	188.6368869552968	143.51654978696936	3.0274148045669866	0.9954061293377172
0.011368101211222333	6.530402672640469e-25	6.362469913623614e8	2.5926517438024705e25	188.6368869552968	143.51654978696936	3.0274148045669866	0.9954061293377172
0.011412359518185164	6.765821463694665e-25	6.362469913623614e8	2.5926517438024705e25	188.6368869552968	143.51654978696936	3.0274148045669866	0.9954061293377172
0.011456790131648329	6.999938531026664e-25	6.362469913623614e8	2.5926517438024705e25	188.6368869552968	143.51654978696936	3.0274148045669866	0.9954061293377172
0.011501393722435737	7.236590265717754e-25	6.362469913623614e8	2.5926517438024705e25	188.6368869552968	143.51654978696936	3.0274148045669866	0.9954061293377172
0.011546170963982933	7.476386740940491e-25	6.362469913623614e8	2.5926517438024705e25	188.6368869552968	143.51654978696936	3.0274148045669866	0.9954061293377172
0.011591122532347295	7.719357545850732e-25	6.362469913623614e8	2.5926517438024705e25	188.6368869552968	143.51654978696936	3.0274148045669866	0.9954061293377172
0.011636249106218221	7.965532520127114e-25	6.362469913623614e8	2.5926517438024705e25	188.6368869552968	143.51654978696936	3.0274148045669866	0.9954061293377172
0.011681551366927383	8.214941756002094e-25	6.362469913623614e8	2.5926517438024705e25	188.6368869552968	143.51654978696936	3.0274148045669866	0.9954061293377172
0.011727029998459019	8.467615600309269e-25	6.362469913623614e8	2.5926517438024705e25	188.6368869552968	143.51654978696936	3.0274148045669866	0.9954061293377172
0.011772685687460248	8.7235846565468e-25	6.362469913623614e8	2.5926517438024705e25	188.6368869552968	143.51654978696936	3.0274148045669866	0.9954061293377172
0.011818519123251457	8.9828797869574e-25	6.362469913623614e8	2.5926517438024705e25	188.6368869552968	143.51654978696936	3.0274148045669866	0.9954061293377172
0.011864530997836681	9.24553211462466e-25	6.362469913623614e8	2.5926517438024705e25	188.6368869552968	143.51654978696936	3.0274148045669866	0.9954061293377172
0.011910722005914079	9.511573025586274e-25	6.362469913623614e8	2.5926517438024705e25	188.6368869552968	143.51654978696936	3.0274148045669866	0.9954061293377172
0.011957092844886401	9.781034170963797e-25	6.362469913623614e8	2.5926517438024705e25	188.6368869552968	143.51654978696936	3.0274148045669866	0.9954061293377172
0.01200364421487153	1.0053947469109536e-24	6.362469913623614e8	2.5926517438024705e25	188.6368869552968	143.51654978696936	3.0274148045669866	0.9954061293377172
0.01205037681871305	1.0330345107770378e-24	6.362469913623614e8	2.5926517438024705e25	188.6368869552968	143.51654978696936	3.0274148045669866	0.9954061293377172
0.012097291361990854	1.0610259546268786e-24	6.362469913623614e8	2.5926517438024705e25	188.6368869552968	143.51654978696936	3.0274148045669866	0.9954061293377172
0.012144388553031802	1.0893723517701285e-24	6.362469913623614e8	2.5926517438024705e25	188.6368869552968	143.51654978696936	3.0274148045669866	0.9954061293377172
0.012191669102920407	1.118077003115417e-24	6.362469913623614e8	2.5926517438024705e25	188.6368869552968	143.51654978696936	3.0274148045669866	0.9954061293377172
0.012239133725509587	1.1471432373937052e-24	6.362469913623614e8	2.5926517438024705e25	188.6368869552968	143.51654978696936	3.0274148045669866	0.9954061293377172
0.012286783137431428	1.1765744113833945e-24	6.362469913623614e8	2.5926517438024705e25	188.6368869552968	143.51654978696936	3.0274148045669866	0.9954061293377172
0.012334618058108007	1.2063739101372342e-24	6.362469913623614e8	2.5926517438024705e25	188.6368869552968	143.51654978696936	3.0274148045669866	0.9954061293377172
0.012382639209762259	1.2365451472110248e-24	6.362469913623614e8	2.5926517438024705e25	188.6368869552968	143.51654978696936	3.0274148045669866	0.9954061293377172
0.012430847317428873	1.267091564894145e-24	6.362469913623614e8	2.5926517438024705e25	188.6368869552968	143.51654978696936	3.0274148045669866	0.9954061293377172
0.012479243108965256	1.298016634441904e-24	6.362469913623614e8	2.5926517438024705e25	188.6368869552968	143.51654978696936	3.0274148045669866	0.9954061293377172
0.012527827315062499	1.3293238563097308e-24	6.362469913623614e8	2.5926517438024705e25	188.6368869552968	143.51654978696936	3.0274148045669866	0.9954061293377172
0.012576600669256423	1.3610167603892362e-24	6.362469913623614e8	2.5926517438024705e25	188.6368869552968	143.51654978696936	3.0274148045669866	0.9954061293377172
0.012625563907938656	1.3930989062461437e-24	6.362469913623614e8	2.5926517438024705e25	188.6368869552968	143.51654978696936	3.0274148045669866	0.9954061293377172
0.012674717770367742	1.4255738833601019e-24	6.362469913623614e8	2.5926517438024705e25	188.6368869552968	143.51654978696936	3.0274148045669866	0.9954061293377172
0.01272406299868031	1.4584453113664118e-24	6.362469913623614e8	2.5926517438024705e25	188.6368869552968	143.51654978696936	3.0274148045669866	0.9954061293377172
0.012773600337902273	1.4917168402996591e-24	6.362469913623614e8	2.5926517438024705e25	188.6368869552968	143.51654978696936	3.0274148045669866	0.9954061293377172
0.012823330535960088	1.5253921508393e-24	6.362469913623614e8	2.5926517438024705e25	188.6368869552968	143.51654978696936	3.0274148045669866	0.9954061293377172
0.01287325434369203	1.5594749545571674e-24	6.362469913623614e8	2.5926517438024705e25	188.6368869552968	143.51654978696936	3.0274148045669866	0.9954061293377172
0.012923372514859546	1.5939689941669686e-24	6.362469913623614e8	2.5926517438024705e25	188.6368869552968	143.51654978696936	3.0274148045669866	0.9954061293377172
0.012973685806158621	1.628878043775739e-24	6.362469913623614e8	2.5926517438024705e25	188.6368869552968	143.51654978696936	3.0274148045669866	0.9954061293377172
0.01302419497723122	1.6642059091373207e-24	6.362469913623614e8	2.5926517438024705e25	188.6368869552968	143.51654978696936	3.0274148045669866	0.9954061293377172
0.01307490079067674	1.699956427907808e-24	6.362469913623614e8	2.5926517438024705e25	188.6368869552968	143.51654978696936	3.0274148045669866	0.9954061293377172
0.01312580401206353	1.736133469903067e-24	6.362469913623614e8	2.5926517438024705e25	188.6368869552968	143.51654978696936	3.0274148045669866	0.9954061293377172
0.013176905409940456	1.772740937358261e-24	6.362469913623614e8	2.5926517438024705e25	188.6368869552968	143.51654978696936	3.0274148045669866	0.9954061293377172
0.013228205755848493	1.8097827651894524e-24	6.362469913623614e8	2.5926517438024705e25	188.6368869552968	143.51654978696936	3.0274148045669866	0.9954061293377172
0.013279705824332386	1.84726292125728e-24	6.362469913623614e8	2.5926517438024705e25	188.6368869552968	143.51654978696936	3.0274148045669866	0.9954061293377172
0.013331406392952338	1.8851854066327143e-24	6.362469913623614e8	2.5926517438024705e25	188.6368869552968	143.51654978696936	3.0274148045669866	0.9954061293377172
0.013383308242295746	1.923554255864934e-24	6.362469913623614e8	2.5926517438024705e25	188.6368869552968	143.51654978696936	3.0274148045669866	0.9954061293377172
0.013435412155988999	1.962373537251323e-24	6.362469913623614e8	2.5926517438024705e25	188.6368869552968	143.51654978696936	3.0274148045669866	0.9954061293377172
0.01348771892070929	2.001647353109594e-24	6.362469913623614e8	2.5926517438024705e25	188.6368869552968	143.51654978696936	3.0274148045669866	0.9954061293377172
0.013540229326196513	2.041379840052098e-24	6.362469913623614e8	2.5926517438024705e25	188.6368869552968	143.51654978696936	3.0274148045669866	0.9954061293377172
0.01359294416526518	2.0815751692622807e-24	6.362469913623614e8	2.5926517438024705e25	188.6368869552968	143.51654978696936	3.0274148045669866	0.9954061293377172
0.01364586423381638	2.122237546773344e-24	6.362469913623614e8	2.5926517438024705e25	188.6368869552968	143.51654978696936	3.0274148045669866	0.9954061293377172
0.01369899033084976	2.1633712137490758e-24	6.362469913623614e8	2.5926517438024705e25	188.6368869552968	143.51654978696936	3.0274148045669866	0.9954061293377172
0.013752323258475795	2.2049804467671095e-24	6.362469913623614e8	2.5926517438024705e25	188.6368869552968	143.51654978696936	3.0274148045669866	0.9954061293377172
0.01380586382192757	2.247069558104007e-24	6.362469913623614e8	2.5926517438024705e25	188.6368869552968	143.51654978696936	3.0274148045669866	0.9954061293377172
0.013859612829573162	2.2896428960230323e-24	6.362469913623614e8	2.5926517438024705e25	188.6368869552968	143.51654978696936	3.0274148045669866	0.9954061293377172
0.01391357109292779	2.3327048450639847e-24	6.362469913623614e8	2.5926517438024705e25	188.6368869552968	143.51654978696936	3.0274148045669866	0.9954061293377172
0.01396773942666606	2.3762598263353703e-24	6.362469913623614e8	2.5926517438024705e25	188.6368869552968	143.51654978696936	3.0274148045669866	0.9954061293377172
0.014022118648634275	2.420312297808899e-24	6.362469913623614e8	2.5926517438024705e25	188.6368869552968	143.51654978696936	3.0274148045669866	0.9954061293377172
0.014076709579862772	2.4648667546163064e-24	6.362469913623614e8	2.5926517438024705e25	188.6368869552968	143.51654978696936	3.0274148045669866	0.9954061293377172
0.014131513044578332	2.509927729348525e-24	6.362469913623614e8	2.5926517438024705e25	188.6368869552968	143.51654978696936	3.0274148045669866	0.9954061293377172
0.014186529870216614	2.5554997923572392e-24	6.362469913623614e8	2.5926517438024705e25	188.6368869552968	143.51654978696936	3.0274148045669866	0.9954061293377172
0.014241760887434647	2.6015875520588057e-24	6.362469913623614e8	2.5926517438024705e25	188.6368869552968	143.51654978696936	3.0274148045669866	0.9954061293377172
0.014297206930123381	2.6481956552406113e-24	6.362469913623614e8	2.5926517438024705e25	188.6368869552968	143.51654978696936	3.0274148045669866	0.9954061293377172
0.014352868835420267	2.695328787369829e-24	6.362469913623614e8	2.5926517438024705e25	188.6368869552968	143.51654978696936	3.0274148045669866	0.9954061293377172
0.0144087474437219	2.7429916729046333e-24	6.362469913623614e8	2.5926517438024705e25	188.6368869552968	143.51654978696936	3.0274148045669866	0.9954061293377172
0.014464843598696715	2.79118907560789e-24	6.362469913623614e8	2.5926517438024705e25	188.6368869552968	143.51654978696936	3.0274148045669866	0.9954061293377172
0.01452115814729771	2.8399257988633004e-24	6.362469913623614e8	2.5926517438024705e25	188.6368869552968	143.51654978696936	3.0274148045669866	0.9954061293377172
0.014577691939775246	2.8892066859940872e-24	6.362469913623614e8	2.5926517438024705e25	188.6368869552968	143.51654978696936	3.0274148045669866	0.9954061293377172
0.014634445829689879	2.939036620584167e-24	6.362469913623614e8	2.5926517438024705e25	188.6368869552968	143.51654978696936	3.0274148045669866	0.9954061293377172
0.014691420673925246	2.9894205268018955e-24	6.362469913623614e8	2.5926517438024705e25	188.6368869552968	143.51654978696936	3.0274148045669866	0.9954061293377172
0.014748617332701008	3.0403633697263563e-24	6.362469913623614e8	2.5926517438024705e25	188.6368869552968	143.51654978696936	3.0274148045669866	0.9954061293377172
0.014806036669585835	3.0918701556762465e-24	6.362469913623614e8	2.5926517438024705e25	188.6368869552968	143.51654978696936	3.0274148045669866	0.9954061293377172
0.014863679551510436	3.1439459325413472e-24	6.362469913623614e8	2.5926517438024705e25	188.6368869552968	143.51654978696936	3.0274148045669866	0.9954061293377172
0.014921546848780665	3.1965957901166483e-24	6.362469913623614e8	2.5926517438024705e25	188.6368869552968	143.51654978696936	3.0274148045669866	0.9954061293377172
0.014979639435090645	3.2498248604390832e-24	6.362469913623614e8	2.5926517438024705e25	188.6368869552968	143.51654978696936	3.0274148045669866	0.9954061293377172
0.015037958187535975	3.303638318126959e-24	6.362469913623614e8	2.5926517438024705e25	188.6368869552968	143.51654978696936	3.0274148045669866	0.9954061293377172
0.015096503986626954	3.358041380722051e-24	6.362469913623614e8	2.5926517438024705e25	188.6368869552968	143.51654978696936	3.0274148045669866	0.9954061293377172
0.01515527771630189	3.413039309034414e-24	6.362469913623614e8	2.5926517438024705e25	188.6368869552968	143.51654978696936	3.0274148045669866	0.9954061293377172
0.015214280263940437	3.46863740748993e-24	6.362469913623614e8	2.5926517438024705e25	188.6368869552968	143.51654978696936	3.0274148045669866	0.9954061293377172
0.015273512520377005	3.5248410244805856e-24	6.362469913623614e8	2.5926517438024705e25	188.6368869552968	143.51654978696936	3.0274148045669866	0.9954061293377172
0.01533297537991419	3.581655552717548e-24	6.362469913623614e8	2.5926517438024705e25	188.6368869552968	143.51654978696936	3.0274148045669866	0.9954061293377172
0.0153926697403363	3.639086429587006e-24	6.362469913623614e8	2.5926517438024705e25	188.6368869552968	143.51654978696936	3.0274148045669866	0.9954061293377172
0.015452596502922888	3.69713913750885e-24	6.362469913623614e8	2.5926517438024705e25	188.6368869552968	143.51654978696936	3.0274148045669866	0.9954061293377172
0.015512756572462379	3.755819204298181e-24	6.362469913623614e8	2.5926517438024705e25	188.6368869552968	143.51654978696936	3.0274148045669866	0.9954061293377172
0.01557315085726571	3.8151322035296644e-24	6.362469913623614e8	2.5926517438024705e25	188.6368869552968	143.51654978696936	3.0274148045669866	0.9954061293377172
0.015633780269180064	3.875083754904803e-24	6.362469913623614e8	2.5926517438024705e25	188.6368869552968	143.51654978696936	3.0274148045669866	0.9954061293377172
0.015694645723602633	3.935679524622085e-24	6.362469913623614e8	2.5926517438024705e25	188.6368869552968	143.51654978696936	3.0274148045669866	0.9954061293377172
0.01575574813949442	3.996925225750049e-24	6.362469913623614e8	2.5926517438024705e25	188.6368869552968	143.51654978696936	3.0274148045669866	0.9954061293377172
0.01581708843939414	4.058826618603343e-24	6.362469913623614e8	2.5926517438024705e25	188.6368869552968	143.51654978696936	3.0274148045669866	0.9954061293377172
0.01587866754943213	4.121389511121728e-24	6.362469913623614e8	2.5926517438024705e25	188.6368869552968	143.51654978696936	3.0274148045669866	0.9954061293377172
0.01594048639934435	4.184619759252074e-24	6.362469913623614e8	2.5926517438024705e25	188.6368869552968	143.51654978696936	3.0274148045669866	0.9954061293377172
0.016002545922486393	4.248523267333392e-24	6.362469913623614e8	2.5926517438024705e25	188.6368869552968	143.51654978696936	3.0274148045669866	0.9954061293377172
0.016064847055847608	4.31310598848491e-24	6.362469913623614e8	2.5926517438024705e25	188.6368869552968	143.51654978696936	3.0274148045669866	0.9954061293377172
0.016127390740065226	4.378373924997214e-24	6.362469913623614e8	2.5926517438024705e25	188.6368869552968	143.51654978696936	3.0274148045669866	0.9954061293377172
