r[m]	M[Msun]	rho[g/cm^3]	P[N/m^2]	n_e[pm^-3]	n_p[pm^-3]	muF_e[MeV]	B
0.010000000000000014	1.1914224670907997e-38	1.2895179460792644e9	6.765549062590392e25	385.15520622211386	1162.1914977619358	3.9601964660395117	0.994051273523192
0.010038584306797695	3.1886232310413753e-26	1.2895179460792644e9	6.765549062590392e25	385.15520622211386	1162.1914977619358	3.9601964660395117	0.994051273523192
0.01007731748846848	6.464322957441011e-26	1.2895179460792644e9	6.765549062590392e25	385.15520622211386	1162.1914977619358	3.9601964660395117	0.994051273523192
0.010116200119435792	9.803780622481898e-26	1.2895179460792644e9	6.765549062590392e25	385.15520622211386	1162.1914977619358	3.9601964660395117	0.994051273523192
0.010155232776339295	1.318312322162142e-25	1.2895179460792644e9	6.765549062590392e25	385.15520622211386	1162.1914977619358	3.9601964660395117	0.994051273523192
0.010194416038043708	1.657791430000631e-25	1.2895179460792644e9	6.765549062590392e25	385.15520622211386	1162.1914977619358	3.9601964660395117	0.994051273523192
0.010233750485647217	1.9963144824128765e-25	1.2895179460792644e9	6.765549062590392e25	385.15520622211386	1162.1914977619358	3.9601964660395117	0.994051273523192
0.010273236702490168	2.337338732744735e-25	1.2895179460792644e9	6.765549062590392e25	385.15520622211386	1162.1914977619358	3.9601964660395117	0.994051273523192
0.010312875274163578	2.6878386902219383e-25	1.2895179460792644e9	6.765549062590392e25	385.15520622211386	1162.1914977619358	3.9601964660395117	0.994051273523192
0.01035266678851803	3.045375768081914e-25	1.2895179460792644e9	6.765549062590392e25	385.15520622211386	1162.1914977619358	3.9601964660395117	0.994051273523192
0.010392611835672264	3.4073317369172564e-25	1.2895179460792644e9	6.765549062590392e25	385.15520622211386	1162.1914977619358	3.9601964660395117	0.994051273523192
0.010432711008021985	3.7710265615370985e-25	1.2895179460792644e9	6.765549062590392e25	385.15520622211386	1162.1914977619358	3.9601964660395117	0.994051273523192
0.01047296490024849	4.1337173996071105e-25	1.2895179460792644e9	6.765549062590392e25	385.15520622211386	1162.1914977619358	3.9601964660395117	0.994051273523192
0.010513374109327742	4.499527141740471e-25	1.2895179460792644e9	6.765549062590392e25	385.15520622211386	1162.1914977619358	3.9601964660395117	0.994051273523192
0.010553939234539051	4.876819691894615e-25	1.2895179460792644e9	6.765549062590392e25	385.15520622211386	1162.1914977619358	3.9601964660395117	0.994051273523192
0.010594660877474004	5.264338261619706e-25	1.2895179460792644e9	6.765549062590392e25	385.15520622211386	1162.1914977619358	3.9601964660395117	0.994051273523192
0.010635539642045432	5.660699132773474e-25	1.2895179460792644e9	6.765549062590392e25	385.15520622211386	1162.1914977619358	3.9601964660395117	0.994051273523192
0.010676576134496189	6.064484919351814e-25	1.2895179460792644e9	6.765549062590392e25	385.15520622211386	1162.1914977619358	3.9601964660395117	0.994051273523192
0.010717770963408408	6.47424401723507e-25	1.2895179460792644e9	6.765549062590392e25	385.15520622211386	1162.1914977619358	3.9601964660395117	0.994051273523192
0.01075912473971235	6.888490046217118e-25	1.2895179460792644e9	6.765549062590392e25	385.15520622211386	1162.1914977619358	3.9601964660395117	0.994051273523192
0.01080063807669555	7.30570128422458e-25	1.2895179460792644e9	6.765549062590392e25	385.15520622211386	1162.1914977619358	3.9601964660395117	0.994051273523192
0.010842311590011745	7.724320093619324e-25	1.2895179460792644e9	6.765549062590392e25	385.15520622211386	1162.1914977619358	3.9601964660395117	0.994051273523192
0.01088414589769025	8.142752339488491e-25	1.2895179460792644e9	6.765549062590392e25	385.15520622211386	1162.1914977619358	3.9601964660395117	0.994051273523192
0.010926141620144969	8.559366799809599e-25	1.2895179460792644e9	6.765549062590392e25	385.15520622211386	1162.1914977619358	3.9601964660395117	0.994051273523192
0.010968299380183627	8.973528251822705e-25	1.2895179460792644e9	6.765549062590392e25	385.15520622211386	1162.1914977619358	3.9601964660395117	0.994051273523192
0.011010619803017053	9.397415216442347e-25	1.2895179460792644e9	6.765549062590392e25	385.15520622211386	1162.1914977619358	3.9601964660395117	0.994051273523192
0.011053103516268275	9.833757097477286e-25	1.2895179460792644e9	6.765549062590392e25	385.15520622211386	1162.1914977619358	3.9601964660395117	0.994051273523192
0.011095751149982097	1.0280917176103815e-24	1.2895179460792644e9	6.765549062590392e25	385.15520622211386	1162.1914977619358	3.9601964660395117	0.994051273523192
0.01113856333663426	1.0737218842918293e-24	1.2895179460792644e9	6.765549062590392e25	385.15520622211386	1162.1914977619358	3.9601964660395117	0.994051273523192
0.011181540711140912	1.1200944945645177e-24	1.2895179460792644e9	6.765549062590392e25	385.15520622211386	1162.1914977619358	3.9601964660395117	0.994051273523192
0.011224683910867854	1.1670337127697023e-24	1.2895179460792644e9	6.765549062590392e25	385.15520622211386	1162.1914977619358	3.9601964660395117	0.994051273523192
0.011267993575640246	1.2143595157475881e-24	1.2895179460792644e9	6.765549062590392e25	385.15520622211386	1162.1914977619358	3.9601964660395117	0.994051273523192
0.011311470347751925	1.2618876248286095e-24	1.2895179460792644e9	6.765549062590392e25	385.15520622211386	1162.1914977619358	3.9601964660395117	0.994051273523192
0.011355114871975023	1.3094294368744401e-24	1.2895179460792644e9	6.765549062590392e25	385.15520622211386	1162.1914977619358	3.9601964660395117	0.994051273523192
0.011398927795569343	1.3567919543558188e-24	1.2895179460792644e9	6.765549062590392e25	385.15520622211386	1162.1914977619358	3.9601964660395117	0.994051273523192
0.011442909768292226	1.4038154571270464e-24	1.2895179460792644e9	6.765549062590392e25	385.15520622211386	1162.1914977619358	3.9601964660395117	0.994051273523192
0.011487061442408023	1.451154323470373e-24	1.2895179460792644e9	6.765549062590392e25	385.15520622211386	1162.1914977619358	3.9601964660395117	0.994051273523192
0.01153138347269779	1.4991172875161214e-24	1.2895179460792644e9	6.765549062590392e25	385.15520622211386	1162.1914977619358	3.9601964660395117	0.994051273523192
0.011575876516469064	1.5477101704359685e-24	1.2895179460792644e9	6.765549062590392e25	385.15520622211386	1162.1914977619358	3.9601964660395117	0.994051273523192
0.011620541233565415	1.5969388422515005e-24	1.2895179460792644e9	6.765549062590392e25	385.15520622211386	1162.1914977619358	3.9601964660395117	0.994051273523192
0.011665378286376512	1.6468092222270665e-24	1.2895179460792644e9	6.765549062590392e25	385.15520622211386	1162.1914977619358	3.9601964660395117	0.994051273523192
0.011710388339847767	1.6973272792651835e-24	1.2895179460792644e9	6.765549062590392e25	385.15520622211386	1162.1914977619358	3.9601964660395117	0.994051273523192
0.011755572061490282	1.7484990323053685e-24	1.2895179460792644e9	6.765549062590392e25	385.15520622211386	1162.1914977619358	3.9601964660395117	0.994051273523192
0.01180093012139056	1.800330550725787e-24	1.2895179460792644e9	6.765549062590392e25	385.15520622211386	1162.1914977619358	3.9601964660395117	0.994051273523192
0.011846463192220732	1.8528279547486248e-24	1.2895179460792644e9	6.765549062590392e25	385.15520622211386	1162.1914977619358	3.9601964660395117	0.994051273523192
0.01189217194924834	1.9059974158480884e-24	1.2895179460792644e9	6.765549062590392e25	385.15520622211386	1162.1914977619358	3.9601964660395117	0.994051273523192
0.011938057070346394	1.9598451571618983e-24	1.2895179460792644e9	6.765549062590392e25	385.15520622211386	1162.1914977619358	3.9601964660395117	0.994051273523192
0.01198411923600349	2.0143774539060414e-24	1.2895179460792644e9	6.765549062590392e25	385.15520622211386	1162.1914977619358	3.9601964660395117	0.994051273523192
0.012030359129333685	2.0696006337924573e-24	1.2895179460792644e9	6.765549062590392e25	385.15520622211386	1162.1914977619358	3.9601964660395117	0.994051273523192
0.012076777436086933	2.1255210774506433e-24	1.2895179460792644e9	6.765549062590392e25	385.15520622211386	1162.1914977619358	3.9601964660395117	0.994051273523192
0.01212337484465906	2.182145218851961e-24	1.2895179460792644e9	6.765549062590392e25	385.15520622211386	1162.1914977619358	3.9601964660395117	0.994051273523192
0.01217015204610207	2.2394795457376578e-24	1.2895179460792644e9	6.765549062590392e25	385.15520622211386	1162.1914977619358	3.9601964660395117	0.994051273523192
0.012217109734134193	2.297530600049876e-24	1.2895179460792644e9	6.765549062590392e25	385.15520622211386	1162.1914977619358	3.9601964660395117	0.994051273523192
0.012264248605150468	2.3563049783666746e-24	1.2895179460792644e9	6.765549062590392e25	385.15520622211386	1162.1914977619358	3.9601964660395117	0.994051273523192
0.012311569358232884	2.4158093323398674e-24	1.2895179460792644e9	6.765549062590392e25	385.15520622211386	1162.1914977619358	3.9601964660395117	0.994051273523192
0.012359072695160832	2.4760503691366657e-24	1.2895179460792644e9	6.765549062590392e25	385.15520622211386	1162.1914977619358	3.9601964660395117	0.994051273523192
0.012406759320421323	2.53703485188442e-24	1.2895179460792644e9	6.765549062590392e25	385.15520622211386	1162.1914977619358	3.9601964660395117	0.994051273523192
0.012454629941219734	2.598769600119507e-24	1.2895179460792644e9	6.765549062590392e25	385.15520622211386	1162.1914977619358	3.9601964660395117	0.994051273523192
0.012502685267490094	2.661261490239104e-24	1.2895179460792644e9	6.765549062590392e25	385.15520622211386	1162.1914977619358	3.9601964660395117	0.994051273523192
0.012550926011905661	2.7245174559568213e-24	1.2895179460792644e9	6.765549062590392e25	385.15520622211386	1162.1914977619358	3.9601964660395117	0.994051273523192
0.012599352889889549	2.788544488761971e-24	1.2895179460792644e9	6.765549062590392e25	385.15520622211386	1162.1914977619358	3.9601964660395117	0.994051273523192
0.012647966619625122	2.8533496383820318e-24	1.2895179460792644e9	6.765549062590392e25	385.15520622211386	1162.1914977619358	3.9601964660395117	0.994051273523192
0.012696767922066966	2.9189400132495155e-24	1.2895179460792644e9	6.765549062590392e25	385.15520622211386	1162.1914977619358	3.9601964660395117	0.994051273523192
0.012745757520951364	2.9853227809717605e-24	1.2895179460792644e9	6.765549062590392e25	385.15520622211386	1162.1914977619358	3.9601964660395117	0.994051273523192
0.01279493614280714	3.052505168804872e-24	1.2895179460792644e9	6.765549062590392e25	385.15520622211386	1162.1914977619358	3.9601964660395117	0.994051273523192
0.012844304516966217	3.1204944641309355e-24	1.2895179460792644e9	6.765549062590392e25	385.15520622211386	1162.1914977619358	3.9601964660395117	0.994051273523192
0.012893863375574764	3.1892980149397274e-24	1.2895179460792644e9	6.765549062590392e25	385.15520622211386	1162.1914977619358	3.9601964660395117	0.994051273523192
0.012943613453603817	3.258923230313461e-24	1.2895179460792644e9	6.765549062590392e25	385.15520622211386	1162.1914977619358	3.9601964660395117	0.994051273523192
0.012993555488860314	3.329377580915815e-24	1.2895179460792644e9	6.765549062590392e25	385.15520622211386	1162.1914977619358	3.9601964660395117	0.994051273523192
0.0130436902219978	3.400668599484337e-24	1.2895179460792644e9	6.765549062590392e25	385.15520622211386	1162.1914977619358	3.9601964660395117	0.994051273523192
0.013094018396527747	3.4728038813274674e-24	1.2895179460792644e9	6.765549062590392e25	385.15520622211386	1162.1914977619358	3.9601964660395117	0.994051273523192
0.013144540758830356	3.545791084824738e-24	1.2895179460792644e9	6.765549062590392e25	385.15520622211386	1162.1914977619358	3.9601964660395117	0.994051273523192
0.013195258058165689	3.619637931931255e-24	1.2895179460792644e9	6.765549062590392e25	385.15520622211386	1162.1914977619358	3.9601964660395117	0.994051273523192
0.013246171046684825	3.694352208686174e-24	1.2895179460792644e9	6.765549062590392e25	385.15520622211386	1162.1914977619358	3.9601964660395117	0.994051273523192
0.01329728047944081	3.76994176572475e-24	1.2895179460792644e9	6.765549062590392e25	385.15520622211386	1162.1914977619358	3.9601964660395117	0.994051273523192
0.013348587114400165	3.846414518795231e-24	1.2895179460792644e9	6.765549062590392e25	385.15520622211386	1162.1914977619358	3.9601964660395117	0.994051273523192
0.013400091712453922	3.923778449278997e-24	1.2895179460792644e9	6.765549062590392e25	385.15520622211386	1162.1914977619358	3.9601964660395117	0.994051273523192
0.013451795037429016	4.002041604715294e-24	1.2895179460792644e9	6.765549062590392e25	385.15520622211386	1162.1914977619358	3.9601964660395117	0.994051273523192
0.013503697856099381	4.081212099329546e-24	1.2895179460792644e9	6.765549062590392e25	385.15520622211386	1162.1914977619358	3.9601964660395117	0.994051273523192
0.013555800938197674	4.16129811456673e-24	1.2895179460792644e9	6.765549062590392e25	385.15520622211386	1162.1914977619358	3.9601964660395117	0.994051273523192
0.013608105056426444	4.242307899628009e-24	1.2895179460792644e9	6.765549062590392e25	385.15520622211386	1162.1914977619358	3.9601964660395117	0.994051273523192
0.013660610986469665	4.324249772012087e-24	1.2895179460792644e9	6.765549062590392e25	385.15520622211386	1162.1914977619358	3.9601964660395117	0.994051273523192
0.013713319507004293	4.407132118060779e-24	1.2895179460792644e9	6.765549062590392e25	385.15520622211386	1162.1914977619358	3.9601964660395117	0.994051273523192
0.01376623139971158	4.490963393508414e-24	1.2895179460792644e9	6.765549062590392e25	385.15520622211386	1162.1914977619358	3.9601964660395117	0.994051273523192
0.013819347449289011	4.5757521240364594e-24	1.2895179460792644e9	6.765549062590392e25	385.15520622211386	1162.1914977619358	3.9601964660395117	0.994051273523192
0.013872668443461722	4.661506905831635e-24	1.2895179460792644e9	6.765549062590392e25	385.15520622211386	1162.1914977619358	3.9601964660395117	0.994051273523192
0.013926195172994283	4.7482364061488826e-24	1.2895179460792644e9	6.765549062590392e25	385.15520622211386	1162.1914977619358	3.9601964660395117	0.994051273523192
0.0139799284317022	4.8359493638782636e-24	1.2895179460792644e9	6.765549062590392e25	385.15520622211386	1162.1914977619358	3.9601964660395117	0.994051273523192
0.014033869016464041	4.924654590117229e-24	1.2895179460792644e9	6.765549062590392e25	385.15520622211386	1162.1914977619358	3.9601964660395117	0.994051273523192
0.014088017727233013	5.0143609687464134e-24	1.2895179460792644e9	6.765549062590392e25	385.15520622211386	1162.1914977619358	3.9601964660395117	0.994051273523192
0.01414237536704894	5.1050774570105414e-24	1.2895179460792644e9	6.765549062590392e25	385.15520622211386	1162.1914977619358	3.9601964660395117	0.994051273523192
0.014196942742049959	5.1968130861033574e-24	1.2895179460792644e9	6.765549062590392e25	385.15520622211386	1162.1914977619358	3.9601964660395117	0.994051273523192
0.014251720661484795	5.289576961758012e-24	1.2895179460792644e9	6.765549062590392e25	385.15520622211386	1162.1914977619358	3.9601964660395117	0.994051273523192
0.01430670993772455	5.383378264841215e-24	1.2895179460792644e9	6.765549062590392e25	385.15520622211386	1162.1914977619358	3.9601964660395117	0.994051273523192
0.01436191138627481	5.4782262519525034e-24	1.2895179460792644e9	6.765549062590392e25	385.15520622211386	1162.1914977619358	3.9601964660395117	0.994051273523192
0.01441732582578778	5.57413025602817e-24	1.2895179460792644e9	6.765549062590392e25	385.15520622211386	1162.1914977619358	3.9601964660395117	0.994051273523192
0.014472954078074212	5.671099686949528e-24	1.2895179460792644e9	6.765549062590392e25	385.15520622211386	1162.1914977619358	3.9601964660395117	0.994051273523192
0.014528796968115928	5.769144032156851e-24	1.2895179460792644e9	6.765549062590392e25	385.15520622211386	1162.1914977619358	3.9601964660395117	0.994051273523192
0.014584855324077826	5.868272857267192e-24	1.2895179460792644e9	6.765549062590392e25	385.15520622211386	1162.1914977619358	3.9601964660395117	0.994051273523192
0.014641129977320286	5.968495806697641e-24	1.2895179460792644e9	6.765549062590392e25	385.15520622211386	1162.1914977619358	3.9601964660395117	0.994051273523192
0.01469762176241125	6.0698226042928306e-24	1.2895179460792644e9	6.765549062590392e25	385.15520622211386	1162.1914977619358	3.9601964660395117	0.994051273523192
0.014754331517138963	6.172263053958455e-24	1.2895179460792644e9	6.765549062590392e25	385.15520622211386	1162.1914977619358	3.9601964660395117	0.994051273523192
0.01481126008252416	6.2758270402986736e-24	1.2895179460792644e9	6.765549062590392e25	385.15520622211386	1162.1914977619358	3.9601964660395117	0.994051273523192
0.014868408302832595	6.38052452925903e-24	1.2895179460792644e9	6.765549062590392e25	385.15520622211386	1162.1914977619358	3.9601964660395117	0.994051273523192
0.014925777025587623	6.486365568774479e-24	1.2895179460792644e9	6.765549062590392e25	385.15520622211386	1162.1914977619358	3.9601964660395117	0.994051273523192
0.014983367101582526	6.593360289421882e-24	1.2895179460792644e9	6.765549062590392e25	385.15520622211386	1162.1914977619358	3.9601964660395117	0.994051273523192
0.015041179384893499	6.701518905078766e-24	1.2895179460792644e9	6.765549062590392e25	385.15520622211386	1162.1914977619358	3.9601964660395117	0.994051273523192
0.015099214732892068	6.810851713586126e-24	1.2895179460792644e9	6.765549062590392e25	385.15520622211386	1162.1914977619358	3.9601964660395117	0.994051273523192
0.015157474006257925	6.921369097417086e-24	1.2895179460792644e9	6.765549062590392e25	385.15520622211386	1162.1914977619358	3.9601964660395117	0.994051273523192
0.015215958068991458	7.033081524350152e-24	1.2895179460792644e9	6.765549062590392e25	385.15520622211386	1162.1914977619358	3.9601964660395117	0.994051273523192
0.015274667788426918	7.145999548148853e-24	1.2895179460792644e9	6.765549062590392e25	385.15520622211386	1162.1914977619358	3.9601964660395117	0.994051273523192
0.015333604035245047	7.260133809245606e-24	1.2895179460792644e9	6.765549062590392e25	385.15520622211386	1162.1914977619358	3.9601964660395117	0.994051273523192
0.015392767683486115	7.375495035431598e-24	1.2895179460792644e9	6.765549062590392e25	385.15520622211386	1162.1914977619358	3.9601964660395117	0.994051273523192
0.015452159610562621	7.492094042551373e-24	1.2895179460792644e9	6.765549062590392e25	385.15520622211386	1162.1914977619358	3.9601964660395117	0.994051273523192
0.015511780697272689	7.609941735204085e-24	1.2895179460792644e9	6.765549062590392e25	385.15520622211386	1162.1914977619358	3.9601964660395117	0.994051273523192
0.015571631827812878	7.729049107449038e-24	1.2895179460792644e9	6.765549062590392e25	385.15520622211386	1162.1914977619358	3.9601964660395117	0.994051273523192
0.015631713889791364	7.84942724351735e-24	1.2895179460792644e9	6.765549062590392e25	385.15520622211386	1162.1914977619358	3.9601964660395117	0.994051273523192
0.015692027774241155	7.971087318529205e-24	1.2895179460792644e9	6.765549062590392e25	385.15520622211386	1162.1914977619358	3.9601964660395117	0.994051273523192
0.015752574375633058	8.094040599216095e-24	1.2895179460792644e9	6.765549062590392e25	385.15520622211386	1162.1914977619358	3.9601964660395117	0.994051273523192
0.015813354591889327	8.218298444650001e-24	1.2895179460792644e9	6.765549062590392e25	385.15520622211386	1162.1914977619358	3.9601964660395117	0.994051273523192
0.015874369324396724	8.343872306977011e-24	1.2895179460792644e9	6.765549062590392e25	385.15520622211386	1162.1914977619358	3.9601964660395117	0.994051273523192
0.01593561947802001	8.47077373215746e-24	1.2895179460792644e9	6.765549062590392e25	385.15520622211386	1162.1914977619358	3.9601964660395117	0.994051273523192
0.015997105961115112	8.599014360711054e-24	1.2895179460792644e9	6.765549062590392e25	385.15520622211386	1162.1914977619358	3.9601964660395117	0.994051273523192
0.016058829685542977	8.72860592846922e-24	1.2895179460792644e9	6.765549062590392e25	385.15520622211386	1162.1914977619358	3.9601964660395117	0.994051273523192
