r[m]	M[Msun]	rho[g/cm^3]	P[N/m^2]	n_e[pm^-3]	n_p[pm^-3]	muF_e[MeV]	B
0.009999999999999988	-1.155619280650289e-41	1.652701975916107e6	5.58033511826854e21	0.4889302865840707	0.4971910560286079	0.19073364305552573	0.9996613896825913
0.01004147865567372	4.4060155342841395e-29	1.652701975916107e6	5.58033511826854e21	0.4889302865840707	0.4971910560286079	0.19073364305552573	0.9996613896825913
0.010083129359235062	8.975929853753977e-29	1.652701975916107e6	5.58033511826854e21	0.4889302865840707	0.4971910560286079	0.19073364305552573	0.9996613896825913
0.010124952824315601	1.3703722090312766e-28	1.652701975916107e6	5.58033511826854e21	0.4889302865840707	0.4971910560286079	0.19073364305552573	0.9996613896825913
0.010166949767506817	1.85831918462579e-28	1.652701975916107e6	5.58033511826854e21	0.4889302865840707	0.4971910560286079	0.19073364305552573	0.9996613896825913
0.01020912090837267	2.3607955929638073e-28	1.652701975916107e6	5.58033511826854e21	0.4889302865840707	0.4971910560286079	0.19073364305552573	0.9996613896825913
0.010251466969461618	2.877144503961288e-28	1.652701975916107e6	5.58033511826854e21	0.4889302865840707	0.4971910560286079	0.19073364305552573	0.9996613896825913
0.01029398867631931	3.4066900401262843e-28	1.652701975916107e6	5.58033511826854e21	0.4889302865840707	0.4971910560286079	0.19073364305552573	0.9996613896825913
0.010336686757500702	3.9487370348981653e-28	1.652701975916107e6	5.58033511826854e21	0.4889302865840707	0.4971910560286079	0.19073364305552573	0.9996613896825913
0.010379561944582862	4.502570685788996e-28	1.652701975916107e6	5.58033511826854e21	0.4889302865840707	0.4971910560286079	0.19073364305552573	0.9996613896825913
0.01042261497217717	5.067456202237342e-28	1.652701975916107e6	5.58033511826854e21	0.4889302865840707	0.4971910560286079	0.19073364305552573	0.9996613896825913
0.010465846577942252	5.642638448117755e-28	1.652701975916107e6	5.58033511826854e21	0.4889302865840707	0.4971910560286079	0.19073364305552573	0.9996613896825913
0.010509257502596266	6.227341578812816e-28	1.652701975916107e6	5.58033511826854e21	0.4889302865840707	0.4971910560286079	0.19073364305552573	0.9996613896825913
0.010552848489929944	6.820768672790061e-28	1.652701975916107e6	5.58033511826854e21	0.4889302865840707	0.4971910560286079	0.19073364305552573	0.9996613896825913
0.010596620286818986	7.42210135758824e-28	1.652701975916107e6	5.58033511826854e21	0.4889302865840707	0.4971910560286079	0.19073364305552573	0.9996613896825913
0.010640573643237212	8.03049943015316e-28	1.652701975916107e6	5.58033511826854e21	0.4889302865840707	0.4971910560286079	0.19073364305552573	0.9996613896825913
0.01068470931226905	8.645100471425276e-28	1.652701975916107e6	5.58033511826854e21	0.4889302865840707	0.4971910560286079	0.19073364305552573	0.9996613896825913
0.010729028050122803	9.265019455118013e-28	1.652701975916107e6	5.58033511826854e21	0.4889302865840707	0.4971910560286079	0.19073364305552573	0.9996613896825913
0.010773530616143244	9.88934835058561e-28	1.652701975916107e6	5.58033511826854e21	0.4889302865840707	0.4971910560286079	0.19073364305552573	0.9996613896825913
0.010818217772824984	1.0517155719718348e-27	1.652701975916107e6	5.58033511826854e21	0.4889302865840707	0.4971910560286079	0.19073364305552573	0.9996613896825913
0.010863090285825185	1.1147486307761203e-27	1.652701975916107e6	5.58033511826854e21	0.4889302865840707	0.4971910560286079	0.19073364305552573	0.9996613896825913
0.010908148923977026	1.177936062799175e-27	1.652701975916107e6	5.58033511826854e21	0.4889302865840707	0.4971910560286079	0.19073364305552573	0.9996613896825913
0.01095339445930257	1.2411774540151746e-27	1.652701975916107e6	5.58033511826854e21	0.4889302865840707	0.4971910560286079	0.19073364305552573	0.9996613896825913
0.010998827667026121	1.304369882256142e-27	1.652701975916107e6	5.58033511826854e21	0.4889302865840707	0.4971910560286079	0.19073364305552573	0.9996613896825913
0.01104444932558765	1.3674078737822052e-27	1.652701975916107e6	5.58033511826854e21	0.4889302865840707	0.4971910560286079	0.19073364305552573	0.9996613896825913
0.011090260216655807	1.4301833592011093e-27	1.652701975916107e6	5.58033511826854e21	0.4889302865840707	0.4971910560286079	0.19073364305552573	0.9996613896825913
0.011136261125141681	1.4925856287295448e-27	1.652701975916107e6	5.58033511826854e21	0.4889302865840707	0.4971910560286079	0.19073364305552573	0.9996613896825913
0.011182452839211888	1.5545012867851474e-27	1.652701975916107e6	5.58033511826854e21	0.4889302865840707	0.4971910560286079	0.19073364305552573	0.9996613896825913
0.01122883615030243	1.6158489024659977e-27	1.652701975916107e6	5.58033511826854e21	0.4889302865840707	0.4971910560286079	0.19073364305552573	0.9996613896825913
0.0112754118531319	1.6784540540620087e-27	1.652701975916107e6	5.58033511826854e21	0.4889302865840707	0.4971910560286079	0.19073364305552573	0.9996613896825913
0.011322180745715456	1.743334470888431e-27	1.652701975916107e6	5.58033511826854e21	0.4889302865840707	0.4971910560286079	0.19073364305552573	0.9996613896825913
0.011369143629378138	1.8103914397536686e-27	1.652701975916107e6	5.58033511826854e21	0.4889302865840707	0.4971910560286079	0.19073364305552573	0.9996613896825913
0.011416301308768955	1.879523378230174e-27	1.652701975916107e6	5.58033511826854e21	0.4889302865840707	0.4971910560286079	0.19073364305552573	0.9996613896825913
0.011463654591874308	1.950625782802818e-27	1.652701975916107e6	5.58033511826854e21	0.4889302865840707	0.4971910560286079	0.19073364305552573	0.9996613896825913
0.011511204290032204	2.0235911762274453e-27	1.652701975916107e6	5.58033511826854e21	0.4889302865840707	0.4971910560286079	0.19073364305552573	0.9996613896825913
0.011558951217945779	2.0983090540864067e-27	1.652701975916107e6	5.58033511826854e21	0.4889302865840707	0.4971910560286079	0.19073364305552573	0.9996613896825913
0.011606896193697643	2.1746658305319535e-27	1.652701975916107e6	5.58033511826854e21	0.4889302865840707	0.4971910560286079	0.19073364305552573	0.9996613896825913
0.011655040038763508	2.2525447832038623e-27	1.652701975916107e6	5.58033511826854e21	0.4889302865840707	0.4971910560286079	0.19073364305552573	0.9996613896825913
0.01170338357802665	2.3318259973120322e-27	1.652701975916107e6	5.58033511826854e21	0.4889302865840707	0.4971910560286079	0.19073364305552573	0.9996613896825913
0.011751927639791661	2.4123863088699565e-27	1.652701975916107e6	5.58033511826854e21	0.4889302865840707	0.4971910560286079	0.19073364305552573	0.9996613896825913
0.011800673055799014	2.4940992470695928e-27	1.652701975916107e6	5.58033511826854e21	0.4889302865840707	0.4971910560286079	0.19073364305552573	0.9996613896825913
0.01184962066123899	2.576834975783271e-27	1.652701975916107e6	5.58033511826854e21	0.4889302865840707	0.4971910560286079	0.19073364305552573	0.9996613896825913
0.011898771294766129	2.6604602341823197e-27	1.652701975916107e6	5.58033511826854e21	0.4889302865840707	0.4971910560286079	0.19073364305552573	0.9996613896825913
0.011948125798513738	2.7448382764593105e-27	1.652701975916107e6	5.58033511826854e21	0.4889302865840707	0.4971910560286079	0.19073364305552573	0.9996613896825913
0.011997685018107987	2.829828810640558e-27	1.652701975916107e6	5.58033511826854e21	0.4889302865840707	0.4971910560286079	0.19073364305552573	0.9996613896825913
0.012047449802682787	2.9152879364782415e-27	1.652701975916107e6	5.58033511826854e21	0.4889302865840707	0.4971910560286079	0.19073364305552573	0.9996613896825913
0.012097421004893942	3.001068082406692e-27	1.652701975916107e6	5.58033511826854e21	0.4889302865840707	0.4971910560286079	0.19073364305552573	0.9996613896825913
0.012147599480934157	3.0870179415525193e-27	1.652701975916107e6	5.58033511826854e21	0.4889302865840707	0.4971910560286079	0.19073364305552573	0.9996613896825913
0.012197986090547315	3.1729824067826617e-27	1.652701975916107e6	5.58033511826854e21	0.4889302865840707	0.4971910560286079	0.19073364305552573	0.9996613896825913
0.012248581697043593	3.258802504779623e-27	1.652701975916107e6	5.58033511826854e21	0.4889302865840707	0.4971910560286079	0.19073364305552573	0.9996613896825913
0.012299387167313866	3.3443153291277206e-27	1.652701975916107e6	5.58033511826854e21	0.4889302865840707	0.4971910560286079	0.19073364305552573	0.9996613896825913
0.01235040337184496	3.429353972399225e-27	1.652701975916107e6	5.58033511826854e21	0.4889302865840707	0.4971910560286079	0.19073364305552573	0.9996613896825913
0.012401631184734153	3.513747457223756e-27	1.652701975916107e6	5.58033511826854e21	0.4889302865840707	0.4971910560286079	0.19073364305552573	0.9996613896825913
0.012453071483704574	3.597391853648963e-27	1.652701975916107e6	5.58033511826854e21	0.4889302865840707	0.4971910560286079	0.19073364305552573	0.9996613896825913
0.012504725150119819	3.682954829042646e-27	1.652701975916107e6	5.58033511826854e21	0.4889302865840707	0.4971910560286079	0.19073364305552573	0.9996613896825913
0.012556593068999464	3.7718225688891984e-27	1.652701975916107e6	5.58033511826854e21	0.4889302865840707	0.4971910560286079	0.19073364305552573	0.9996613896825913
0.012608676129033833	3.863934919826652e-27	1.652701975916107e6	5.58033511826854e21	0.4889302865840707	0.4971910560286079	0.19073364305552573	0.9996613896825913
0.012660975222599612	3.9592296356584655e-27	1.652701975916107e6	5.58033511826854e21	0.4889302865840707	0.4971910560286079	0.19073364305552573	0.9996613896825913
0.012713491245774748	4.0576423379878336e-27	1.652701975916107e6	5.58033511826854e21	0.4889302865840707	0.4971910560286079	0.19073364305552573	0.9996613896825913
0.012766225098354195	4.1591064762430815e-27	1.652701975916107e6	5.58033511826854e21	0.4889302865840707	0.4971910560286079	0.19073364305552573	0.9996613896825913
0.012819177683864941	4.2635532870827e-27	1.652701975916107e6	5.58033511826854e21	0.4889302865840707	0.4971910560286079	0.19073364305552573	0.9996613896825913
0.012872349909581885	4.3709117531741756e-27	1.652701975916107e6	5.58033511826854e21	0.4889302865840707	0.4971910560286079	0.19073364305552573	0.9996613896825913
0.012925742686543017	4.4811085613347086e-27	1.652701975916107e6	5.58033511826854e21	0.4889302865840707	0.4971910560286079	0.19073364305552573	0.9996613896825913
0.012979356929565202	4.594068060027474e-27	1.652701975916107e6	5.58033511826854e21	0.4889302865840707	0.4971910560286079	0.19073364305552573	0.9996613896825913
0.013033193557259992	4.709712216203095e-27	1.652701975916107e6	5.58033511826854e21	0.4889302865840707	0.4971910560286079	0.19073364305552573	0.9996613896825913
0.013087253492049008	4.827960571476119e-27	1.652701975916107e6	5.58033511826854e21	0.4889302865840707	0.4971910560286079	0.19073364305552573	0.9996613896825913
0.013141537660180162	4.9487301976298305e-27	1.652701975916107e6	5.58033511826854e21	0.4889302865840707	0.4971910560286079	0.19073364305552573	0.9996613896825913
0.013196046991743107	5.0719356514364354e-27	1.652701975916107e6	5.58033511826854e21	0.4889302865840707	0.4971910560286079	0.19073364305552573	0.9996613896825913
0.013250782420685595	5.197488928786684e-27	1.652701975916107e6	5.58033511826854e21	0.4889302865840707	0.4971910560286079	0.19073364305552573	0.9996613896825913
0.013305744884829059	5.32529941811539e-27	1.652701975916107e6	5.58033511826854e21	0.4889302865840707	0.4971910560286079	0.19073364305552573	0.9996613896825913
0.01336093532588509	5.45527385311679e-27	1.652701975916107e6	5.58033511826854e21	0.4889302865840707	0.4971910560286079	0.19073364305552573	0.9996613896825913
0.013416354689471175	5.587316264735906e-27	1.652701975916107e6	5.58033511826854e21	0.4889302865840707	0.4971910560286079	0.19073364305552573	0.9996613896825913
0.0134720039251273	5.721327932429636e-27	1.652701975916107e6	5.58033511826854e21	0.4889302865840707	0.4971910560286079	0.19073364305552573	0.9996613896825913
0.013527883986331795	5.8572073346832444e-27	1.652701975916107e6	5.58033511826854e21	0.4889302865840707	0.4971910560286079	0.19073364305552573	0.9996613896825913
0.013583995830518121	5.994850098776067e-27	1.652701975916107e6	5.58033511826854e21	0.4889302865840707	0.4971910560286079	0.19073364305552573	0.9996613896825913
0.013640340419090811	6.1341489497814816e-27	1.652701975916107e6	5.58033511826854e21	0.4889302865840707	0.4971910560286079	0.19073364305552573	0.9996613896825913
0.013696918717442406	6.274993658794885e-27	1.652701975916107e6	5.58033511826854e21	0.4889302865840707	0.4971910560286079	0.19073364305552573	0.9996613896825913
0.013753731694969537	6.417270990374377e-27	1.652701975916107e6	5.58033511826854e21	0.4889302865840707	0.4971910560286079	0.19073364305552573	0.9996613896825913
0.01381078032508999	6.560864649187567e-27	1.652701975916107e6	5.58033511826854e21	0.4889302865840707	0.4971910560286079	0.19073364305552573	0.9996613896825913
0.01386806558525893	6.705655225848975e-27	1.652701975916107e6	5.58033511826854e21	0.4889302865840707	0.4971910560286079	0.19073364305552573	0.9996613896825913
0.0139255884569861	6.851520141941104e-27	1.652701975916107e6	5.58033511826854e21	0.4889302865840707	0.4971910560286079	0.19073364305552573	0.9996613896825913
0.013983349925852184	6.998333594203382e-27	1.652701975916107e6	5.58033511826854e21	0.4889302865840707	0.4971910560286079	0.19073364305552573	0.9996613896825913
0.014041350981526155	7.14596649788178e-27	1.652701975916107e6	5.58033511826854e21	0.4889302865840707	0.4971910560286079	0.19073364305552573	0.9996613896825913
0.014099592617781828	7.294286429222948e-27	1.652701975916107e6	5.58033511826854e21	0.4889302865840707	0.4971910560286079	0.19073364305552573	0.9996613896825913
0.014158075832515058	7.443157567104643e-27	1.652701975916107e6	5.58033511826854e21	0.4889302865840707	0.4971910560286079	0.19073364305552573	0.9996613896825913
0.014216801627761006	7.592440633788815e-27	1.652701975916107e6	5.58033511826854e21	0.4889302865840707	0.4971910560286079	0.19073364305552573	0.9996613896825913
0.01427577100971091	7.741992834783753e-27	1.652701975916107e6	5.58033511826854e21	0.4889302865840707	0.4971910560286079	0.19073364305552573	0.9996613896825913
0.014334984988729796	7.891667797806517e-27	1.652701975916107e6	5.58033511826854e21	0.4889302865840707	0.4971910560286079	0.19073364305552573	0.9996613896825913
0.0143944445793733	8.041315510828486e-27	1.652701975916107e6	5.58033511826854e21	0.4889302865840707	0.4971910560286079	0.19073364305552573	0.9996613896825913
0.014454150800405545	8.190782259196182e-27	1.652701975916107e6	5.58033511826854e21	0.4889302865840707	0.4971910560286079	0.19073364305552573	0.9996613896825913
0.014514104674816106	8.339910561809482e-27	1.652701975916107e6	5.58033511826854e21	0.4889302865840707	0.4971910560286079	0.19073364305552573	0.9996613896825913
0.014574307229838027	8.488539106349182e-27	1.652701975916107e6	5.58033511826854e21	0.4889302865840707	0.4971910560286079	0.19073364305552573	0.9996613896825913
0.01463475949696493	8.636502683535635e-27	1.652701975916107e6	5.58033511826854e21	0.4889302865840707	0.4971910560286079	0.19073364305552573	0.9996613896825913
0.014695462511969178	8.783632120410033e-27	1.652701975916107e6	5.58033511826854e21	0.4889302865840707	0.4971910560286079	0.19073364305552573	0.9996613896825913
0.014756417314919138	8.92975421261982e-27	1.652701975916107e6	5.58033511826854e21	0.4889302865840707	0.4971910560286079	0.19073364305552573	0.9996613896825913
0.01481762495019748	9.074691655699264e-27	1.652701975916107e6	5.58033511826854e21	0.4889302865840707	0.4971910560286079	0.19073364305552573	0.9996613896825913
0.014879086466518593	9.218262975326508e-27	1.652701975916107e6	5.58033511826854e21	0.4889302865840707	0.4971910560286079	0.19073364305552573	0.9996613896825913
0.014940802916947033	9.363002489008759e-27	1.652701975916107e6	5.58033511826854e21	0.4889302865840707	0.4971910560286079	0.19073364305552573	0.9996613896825913
0.015002775358915086	9.513262794937662e-27	1.652701975916107e6	5.58033511826854e21	0.4889302865840707	0.4971910560286079	0.19073364305552573	0.9996613896825913
0.015065004854241365	9.668978453496862e-27	1.652701975916107e6	5.58033511826854e21	0.4889302865840707	0.4971910560286079	0.19073364305552573	0.9996613896825913
0.01512749246914852	9.830011970410412e-27	1.652701975916107e6	5.58033511826854e21	0.4889302865840707	0.4971910560286079	0.19073364305552573	0.9996613896825913
0.015190239274282	9.996221447313002e-27	1.652701975916107e6	5.58033511826854e21	0.4889302865840707	0.4971910560286079	0.19073364305552573	0.9996613896825913
0.01525324634472789	1.0167460500339236e-26	1.652701975916107e6	5.58033511826854e21	0.4889302865840707	0.4971910560286079	0.19073364305552573	0.9996613896825913
0.015316514760031846	1.0343578177462176e-26	1.652701975916107e6	5.58033511826854e21	0.4889302865840707	0.4971910560286079	0.19073364305552573	0.9996613896825913
0.015380045604217147	1.052441887455842e-26	1.652701975916107e6	5.58033511826854e21	0.4889302865840707	0.4971910560286079	0.19073364305552573	0.9996613896825913
0.015443839965803445	1.070982225018581e-26	1.652701975916107e6	5.58033511826854e21	0.4889302865840707	0.4971910560286079	0.19073364305552573	0.9996613896825913
0.015507898937825624	1.0899623139054201e-26	1.652701975916107e6	5.58033511826854e21	0.4889302865840707	0.4971910560286079	0.19073364305552573	0.9996613896825913
0.01557222361785207	1.1093651464168782e-26	1.652701975916107e6	5.58033511826854e21	0.4889302865840707	0.4971910560286079	0.19073364305552573	0.9996613896825913
0.015636815108003993	1.1291732147631997e-26	1.652701975916107e6	5.58033511826854e21	0.4889302865840707	0.4971910560286079	0.19073364305552573	0.9996613896825913
0.0157016745149738	1.149368502007932e-26	1.652701975916107e6	5.58033511826854e21	0.4889302865840707	0.4971910560286079	0.19073364305552573	0.9996613896825913
0.01576680295004456	1.1699324728735872e-26	1.652701975916107e6	5.58033511826854e21	0.4889302865840707	0.4971910560286079	0.19073364305552573	0.9996613896825913
0.015832201529108542	1.1908460644068076e-26	1.652701975916107e6	5.58033511826854e21	0.4889302865840707	0.4971910560286079	0.19073364305552573	0.9996613896825913
0.015897871372686844	1.2120896765017253e-26	1.652701975916107e6	5.58033511826854e21	0.4889302865840707	0.4971910560286079	0.19073364305552573	0.9996613896825913
0.015963813605948073	1.2336431622788513e-26	1.652701975916107e6	5.58033511826854e21	0.4889302865840707	0.4971910560286079	0.19073364305552573	0.9996613896825913
0.01603002935872815	1.2554858183181392e-26	1.652701975916107e6	5.58033511826854e21	0.4889302865840707	0.4971910560286079	0.19073364305552573	0.9996613896825913
0.016096519765549135	1.2775963747435086e-26	1.652701975916107e6	5.58033511826854e21	0.4889302865840707	0.4971910560286079	0.19073364305552573	0.9996613896825913
0.016163285965639197	1.2999529851574228e-26	1.652701975916107e6	5.58033511826854e21	0.4889302865840707	0.4971910560286079	0.19073364305552573	0.9996613896825913
0.01623032910295161	1.32253321642274e-26	1.652701975916107e6	5.58033511826854e21	0.4889302865840707	0.4971910560286079	0.19073364305552573	0.9996613896825913
0.016297650326184878	1.3453140382903845e-26	1.652701975916107e6	5.58033511826854e21	0.4889302865840707	0.4971910560286079	0.19073364305552573	0.9996613896825913
0.016365250788801883	1.3682718128699852e-26	1.652701975916107e6	5.58033511826854e21	0.4889302865840707	0.4971910560286079	0.19073364305552573	0.9996613896825913
0.016433131649050182	1.3913822839420028e-26	1.652701975916107e6	5.58033511826854e21	0.4889302865840707	0.4971910560286079	0.19073364305552573	0.9996613896825913
0.01650129406998132	1.4146205661083998e-26	1.652701975916107e6	5.58033511826854e21	0.4889302865840707	0.4971910560286079	0.19073364305552573	0.9996613896825913
0.016569739219471292	1.437961133780335e-26	1.652701975916107e6	5.58033511826854e21	0.4889302865840707	0.4971910560286079	0.19073364305552573	0.9996613896825913
0.01663846827024009	1.4613778099998967e-26	1.652701975916107e6	5.58033511826854e21	0.4889302865840707	0.4971910560286079	0.19073364305552573	0.9996613896825913
