r[m]	M[Msun]	rho[g/cm^3]	P[N/m^2]	n_e[pm^-3]	n_p[pm^-3]	muF_e[MeV]	B
0.01000000000000002	6.807648126012611e-41	5.359364698933301e6	3.316809176379775e22	1.5892653238545065	1.6121983815330412	0.3657498612264424	0.9993633763106281
0.010041046967919338	1.4138543514184225e-28	5.359364698933301e6	3.316809176379775e22	1.5892653238545065	1.6121983815330412	0.3657498612264424	0.9993633763106281
0.010082262421196236	2.8803205251234536e-28	5.359364698933301e6	3.316809176379775e22	1.5892653238545065	1.6121983815330412	0.3657498612264424	0.9993633763106281
0.010123647051411933	4.397746998490095e-28	5.359364698933301e6	3.316809176379775e22	1.5892653238545065	1.6121983815330412	0.3657498612264424	0.9993633763106281
0.010165201552986515	5.964432255635527e-28	5.359364698933301e6	3.316809176379775e22	1.5892653238545065	1.6121983815330412	0.3657498612264424	0.9993633763106281
0.010206926623190442	7.578623882335965e-28	5.359364698933301e6	3.316809176379775e22	1.5892653238545065	1.6121983815330412	0.3657498612264424	0.9993633763106281
0.010248822962156137	9.238517647212409e-28	5.359364698933301e6	3.316809176379775e22	1.5892653238545065	1.6121983815330412	0.3657498612264424	0.9993633763106281
0.010290891272890018	1.0942256569009992e-27	5.359364698933301e6	3.316809176379775e22	1.5892653238545065	1.6121983815330412	0.3657498612264424	0.9993633763106281
0.010333132261283969	1.268792996973775e-27	5.359364698933301e6	3.316809176379775e22	1.5892653238545065	1.6121983815330412	0.3657498612264424	0.9993633763106281
0.01037554663612747	1.4473572513519843e-27	5.359364698933301e6	3.316809176379775e22	1.5892653238545065	1.6121983815330412	0.3657498612264424	0.9993633763106281
0.010418135109119365	1.6297163230919417e-27	5.359364698933301e6	3.316809176379775e22	1.5892653238545065	1.6121983815330412	0.3657498612264424	0.9993633763106281
0.01046089839487968	1.8156624528547778e-27	5.359364698933301e6	3.316809176379775e22	1.5892653238545065	1.6121983815330412	0.3657498612264424	0.9993633763106281
0.010503837210961868	2.0049821183772823e-27	5.359364698933301e6	3.316809176379775e22	1.5892653238545065	1.6121983815330412	0.3657498612264424	0.9993633763106281
0.010546952277864721	2.197455932428561e-27	5.359364698933301e6	3.316809176379775e22	1.5892653238545065	1.6121983815330412	0.3657498612264424	0.9993633763106281
0.010590244319044331	2.3928585392332078e-27	5.359364698933301e6	3.316809176379775e22	1.5892653238545065	1.6121983815330412	0.3657498612264424	0.9993633763106281
0.01063371406092653	2.590958509341548e-27	5.359364698933301e6	3.316809176379775e22	1.5892653238545065	1.6121983815330412	0.3657498612264424	0.9993633763106281
0.010677362232918737	2.791518232920765e-27	5.359364698933301e6	3.316809176379775e22	1.5892653238545065	1.6121983815330412	0.3657498612264424	0.9993633763106281
0.010721189567422492	2.99429381145067e-27	5.359364698933301e6	3.316809176379775e22	1.5892653238545065	1.6121983815330412	0.3657498612264424	0.9993633763106281
0.01076519679984563	3.199034947797387e-27	5.359364698933301e6	3.316809176379775e22	1.5892653238545065	1.6121983815330412	0.3657498612264424	0.9993633763106281
0.010809384668614471	3.4054848346440235e-27	5.359364698933301e6	3.316809176379775e22	1.5892653238545065	1.6121983815330412	0.3657498612264424	0.9993633763106281
0.01085375391518649	3.6133800412580176e-27	5.359364698933301e6	3.316809176379775e22	1.5892653238545065	1.6121983815330412	0.3657498612264424	0.9993633763106281
0.01089830528406262	3.8224503985679946e-27	5.359364698933301e6	3.316809176379775e22	1.5892653238545065	1.6121983815330412	0.3657498612264424	0.9993633763106281
0.010943039522799606	4.032418882528882e-27	5.359364698933301e6	3.316809176379775e22	1.5892653238545065	1.6121983815330412	0.3657498612264424	0.9993633763106281
0.01098795738202287	4.2430014957536874e-27	5.359364698933301e6	3.316809176379775e22	1.5892653238545065	1.6121983815330412	0.3657498612264424	0.9993633763106281
0.011033059615438743	4.45390714738272e-27	5.359364698933301e6	3.316809176379775e22	1.5892653238545065	1.6121983815330412	0.3657498612264424	0.9993633763106281
0.011078346979847428	4.6648375311723824e-27	5.359364698933301e6	3.316809176379775e22	1.5892653238545065	1.6121983815330412	0.3657498612264424	0.9993633763106281
0.011123820235155561	4.875487001773512e-27	5.359364698933301e6	3.316809176379775e22	1.5892653238545065	1.6121983815330412	0.3657498612264424	0.9993633763106281
0.011169480144388831	5.085542449176728e-27	5.359364698933301e6	3.316809176379775e22	1.5892653238545065	1.6121983815330412	0.3657498612264424	0.9993633763106281
0.011215327473705052	5.294683171301115e-27	5.359364698933301e6	3.316809176379775e22	1.5892653238545065	1.6121983815330412	0.3657498612264424	0.9993633763106281
0.01126136299240688	5.502580744697182e-27	5.359364698933301e6	3.316809176379775e22	1.5892653238545065	1.6121983815330412	0.3657498612264424	0.9993633763106281
0.011307587472954593	5.708898893339907e-27	5.359364698933301e6	3.316809176379775e22	1.5892653238545065	1.6121983815330412	0.3657498612264424	0.9993633763106281
0.011354001690979365	5.913293355487647e-27	5.359364698933301e6	3.316809176379775e22	1.5892653238545065	1.6121983815330412	0.3657498612264424	0.9993633763106281
0.011400606425295917	6.119894166318152e-27	5.359364698933301e6	3.316809176379775e22	1.5892653238545065	1.6121983815330412	0.3657498612264424	0.9993633763106281
0.011447402457915907	6.3341029547690975e-27	5.359364698933301e6	3.316809176379775e22	1.5892653238545065	1.6121983815330412	0.3657498612264424	0.9993633763106281
0.011494390574060914	6.555655463203447e-27	5.359364698933301e6	3.316809176379775e22	1.5892653238545065	1.6121983815330412	0.3657498612264424	0.9993633763106281
0.011541571562175475	6.784258823647184e-27	5.359364698933301e6	3.316809176379775e22	1.5892653238545065	1.6121983815330412	0.3657498612264424	0.9993633763106281
0.011588946213940588	7.019611657342708e-27	5.359364698933301e6	3.316809176379775e22	1.5892653238545065	1.6121983815330412	0.3657498612264424	0.9993633763106281
0.01163651532428687	7.261403922177248e-27	5.359364698933301e6	3.316809176379775e22	1.5892653238545065	1.6121983815330412	0.3657498612264424	0.9993633763106281
0.011684279691407737	7.509316757805903e-27	5.359364698933301e6	3.316809176379775e22	1.5892653238545065	1.6121983815330412	0.3657498612264424	0.9993633763106281
0.011732240116773093	7.763022328439705e-27	5.359364698933301e6	3.316809176379775e22	1.5892653238545065	1.6121983815330412	0.3657498612264424	0.9993633763106281
0.011780397405142634	8.022183663261955e-27	5.359364698933301e6	3.316809176379775e22	1.5892653238545065	1.6121983815330412	0.3657498612264424	0.9993633763106281
0.011828752364579205	8.286454494441781e-27	5.359364698933301e6	3.316809176379775e22	1.5892653238545065	1.6121983815330412	0.3657498612264424	0.9993633763106281
0.011877305806462698	8.555479092714395e-27	5.359364698933301e6	3.316809176379775e22	1.5892653238545065	1.6121983815330412	0.3657498612264424	0.9993633763106281
0.01192605854550328	8.82889210048767e-27	5.359364698933301e6	3.316809176379775e22	1.5892653238545065	1.6121983815330412	0.3657498612264424	0.9993633763106281
0.0119750113997554	9.106318362448644e-27	5.359364698933301e6	3.316809176379775e22	1.5892653238545065	1.6121983815330412	0.3657498612264424	0.9993633763106281
0.012024165190631373	9.387372753628672e-27	5.359364698933301e6	3.316809176379775e22	1.5892653238545065	1.6121983815330412	0.3657498612264424	0.9993633763106281
0.012073520742915015	9.671660004894652e-27	5.359364698933301e6	3.316809176379775e22	1.5892653238545065	1.6121983815330412	0.3657498612264424	0.9993633763106281
0.012123078884775781	9.95877452583325e-27	5.359364698933301e6	3.316809176379775e22	1.5892653238545065	1.6121983815330412	0.3657498612264424	0.9993633763106281
0.012172840447782508	1.0248300224986919e-26	5.359364698933301e6	3.316809176379775e22	1.5892653238545065	1.6121983815330412	0.3657498612264424	0.9993633763106281
0.012222806266917218	1.0539810327407728e-26	5.359364698933301e6	3.316809176379775e22	1.5892653238545065	1.6121983815330412	0.3657498612264424	0.9993633763106281
0.01227297718058949	1.0832867189494863e-26	5.359364698933301e6	3.316809176379775e22	1.5892653238545065	1.6121983815330412	0.3657498612264424	0.9993633763106281
0.012323354030650109	1.1127022111070729e-26	5.359364698933301e6	3.316809176379775e22	1.5892653238545065	1.6121983815330412	0.3657498612264424	0.9993633763106281
0.012373937662405559	1.1421815144666812e-26	5.359364698933301e6	3.316809176379775e22	1.5892653238545065	1.6121983815330412	0.3657498612264424	0.9993633763106281
0.012424728924632051	1.1716774901972858e-26	5.359364698933301e6	3.316809176379775e22	1.5892653238545065	1.6121983815330412	0.3657498612264424	0.9993633763106281
0.012475728669589611	1.2011418357413723e-26	5.359364698933301e6	3.316809176379775e22	1.5892653238545065	1.6121983815330412	0.3657498612264424	0.9993633763106281
0.012526937753036689	1.2305250648816628e-26	5.359364698933301e6	3.316809176379775e22	1.5892653238545065	1.6121983815330412	0.3657498612264424	0.9993633763106281
0.01257835703424436	1.2597764875123586e-26	5.359364698933301e6	3.316809176379775e22	1.5892653238545065	1.6121983815330412	0.3657498612264424	0.9993633763106281
0.012629987376010596	1.2888441891110905e-26	5.359364698933301e6	3.316809176379775e22	1.5892653238545065	1.6121983815330412	0.3657498612264424	0.9993633763106281
0.0126818296446751	1.3176750099077588e-26	5.359364698933301e6	3.316809176379775e22	1.5892653238545065	1.6121983815330412	0.3657498612264424	0.9993633763106281
0.012733884710133423	1.3463237154186982e-26	5.359364698933301e6	3.316809176379775e22	1.5892653238545065	1.6121983815330412	0.3657498612264424	0.9993633763106281
0.012786153445851938	1.3758380273315445e-26	5.359364698933301e6	3.316809176379775e22	1.5892653238545065	1.6121983815330412	0.3657498612264424	0.9993633763106281
0.012838636728882328	1.406479319115391e-26	5.359364698933301e6	3.316809176379775e22	1.5892653238545065	1.6121983815330412	0.3657498612264424	0.9993633763106281
0.012891335439876151	1.4382298476859814e-26	5.359364698933301e6	3.316809176379775e22	1.5892653238545065	1.6121983815330412	0.3657498612264424	0.9993633763106281
0.012944250463099929	1.471071234222059e-26	5.359364698933301e6	3.316809176379775e22	1.5892653238545065	1.6121983815330412	0.3657498612264424	0.9993633763106281
0.012997382686449831	1.5049844522402433e-26	5.359364698933301e6	3.316809176379775e22	1.5892653238545065	1.6121983815330412	0.3657498612264424	0.9993633763106281
0.013050733001466412	1.5399498154863835e-26	5.359364698933301e6	3.316809176379775e22	1.5892653238545065	1.6121983815330412	0.3657498612264424	0.9993633763106281
0.013104302303349946	1.5759469656411664e-26	5.359364698933301e6	3.316809176379775e22	1.5892653238545065	1.6121983815330412	0.3657498612264424	0.9993633763106281
0.013158091490975011	1.6129548598365154e-26	5.359364698933301e6	3.316809176379775e22	1.5892653238545065	1.6121983815330412	0.3657498612264424	0.9993633763106281
0.013212101466905962	1.6509517579811778e-26	5.359364698933301e6	3.316809176379775e22	1.5892653238545065	1.6121983815330412	0.3657498612264424	0.9993633763106281
0.013266333137411905	1.6899152098919327e-26	5.359364698933301e6	3.316809176379775e22	1.5892653238545065	1.6121983815330412	0.3657498612264424	0.9993633763106281
0.013320787412481739	1.7298220422280464e-26	5.359364698933301e6	3.316809176379775e22	1.5892653238545065	1.6121983815330412	0.3657498612264424	0.9993633763106281
0.013375465205839758	1.770648345226588e-26	5.359364698933301e6	3.316809176379775e22	1.5892653238545065	1.6121983815330412	0.3657498612264424	0.9993633763106281
0.013430367434960821	1.8123694592351215e-26	5.359364698933301e6	3.316809176379775e22	1.5892653238545065	1.6121983815330412	0.3657498612264424	0.9993633763106281
0.013485495021085571	1.8549599610392593e-26	5.359364698933301e6	3.316809176379775e22	1.5892653238545065	1.6121983815330412	0.3657498612264424	0.9993633763106281
0.013540848889236233	1.898393649982642e-26	5.359364698933301e6	3.316809176379775e22	1.5892653238545065	1.6121983815330412	0.3657498612264424	0.9993633763106281
0.013596429968231972	1.942643533875657e-26	5.359364698933301e6	3.316809176379775e22	1.5892653238545065	1.6121983815330412	0.3657498612264424	0.9993633763106281
0.0136522391907043	1.987681814690317e-26	5.359364698933301e6	3.316809176379775e22	1.5892653238545065	1.6121983815330412	0.3657498612264424	0.9993633763106281
0.013708277493113126	2.033479874038808e-26	5.359364698933301e6	3.316809176379775e22	1.5892653238545065	1.6121983815330412	0.3657498612264424	0.9993633763106281
0.013764545815762022	2.080008258431533e-26	5.359364698933301e6	3.316809176379775e22	1.5892653238545065	1.6121983815330412	0.3657498612264424	0.9993633763106281
0.013821045102814379	2.1272366643129519e-26	5.359364698933301e6	3.316809176379775e22	1.5892653238545065	1.6121983815330412	0.3657498612264424	0.9993633763106281
0.013877776302309103	2.1751339228710007e-26	5.359364698933301e6	3.316809176379775e22	1.5892653238545065	1.6121983815330412	0.3657498612264424	0.9993633763106281
0.01393474036617634	2.2236679846173628e-26	5.359364698933301e6	3.316809176379775e22	1.5892653238545065	1.6121983815330412	0.3657498612264424	0.9993633763106281
0.013991938250253787	2.2728059037358716e-26	5.359364698933301e6	3.316809176379775e22	1.5892653238545065	1.6121983815330412	0.3657498612264424	0.9993633763106281
0.014049370914302571	2.322513822194955e-26	5.359364698933301e6	3.316809176379775e22	1.5892653238545065	1.6121983815330412	0.3657498612264424	0.9993633763106281
0.01410703932202317	2.3727569536212492e-26	5.359364698933301e6	3.316809176379775e22	1.5892653238545065	1.6121983815330412	0.3657498612264424	0.9993633763106281
0.014164944441071992	2.4234995669316167e-26	5.359364698933301e6	3.316809176379775e22	1.5892653238545065	1.6121983815330412	0.3657498612264424	0.9993633763106281
0.014223087243077154	2.4747049697189376e-26	5.359364698933301e6	3.316809176379775e22	1.5892653238545065	1.6121983815330412	0.3657498612264424	0.9993633763106281
0.014281468703655181	2.5263354913897617e-26	5.359364698933301e6	3.316809176379775e22	1.5892653238545065	1.6121983815330412	0.3657498612264424	0.9993633763106281
0.014340089802427208	2.5783524660491574e-26	5.359364698933301e6	3.316809176379775e22	1.5892653238545065	1.6121983815330412	0.3657498612264424	0.9993633763106281
0.014398951523035245	2.6307162151297295e-26	5.359364698933301e6	3.316809176379775e22	1.5892653238545065	1.6121983815330412	0.3657498612264424	0.9993633763106281
0.014458054853159031	2.68338602976176e-26	5.359364698933301e6	3.316809176379775e22	1.5892653238545065	1.6121983815330412	0.3657498612264424	0.9993633763106281
0.014517400784532428	2.736320152879942e-26	5.359364698933301e6	3.316809176379775e22	1.5892653238545065	1.6121983815330412	0.3657498612264424	0.9993633763106281
0.014576990312959887	2.7894757610635277e-26	5.359364698933301e6	3.316809176379775e22	1.5892653238545065	1.6121983815330412	0.3657498612264424	0.9993633763106281
0.014636824438333577	2.842808946106788e-26	5.359364698933301e6	3.316809176379775e22	1.5892653238545065	1.6121983815330412	0.3657498612264424	0.9993633763106281
0.014696904164649674	2.896274696314645e-26	5.359364698933301e6	3.316809176379775e22	1.5892653238545065	1.6121983815330412	0.3657498612264424	0.9993633763106281
0.014757230500025644	2.949826877521409e-26	5.359364698933301e6	3.316809176379775e22	1.5892653238545065	1.6121983815330412	0.3657498612264424	0.9993633763106281
0.014817804456716958	3.00341821382732e-26	5.359364698933301e6	3.316809176379775e22	1.5892653238545065	1.6121983815330412	0.3657498612264424	0.9993633763106281
0.014878627051133917	3.05700026804968e-26	5.359364698933301e6	3.316809176379775e22	1.5892653238545065	1.6121983815330412	0.3657498612264424	0.9993633763106281
0.014939699303859058	3.110523421885046e-26	5.359364698933301e6	3.316809176379775e22	1.5892653238545065	1.6121983815330412	0.3657498612264424	0.9993633763106281
0.015001022239664097	3.163936855777532e-26	5.359364698933301e6	3.316809176379775e22	1.5892653238545065	1.6121983815330412	0.3657498612264424	0.9993633763106281
0.015062596887526944	3.2171885284897506e-26	5.359364698933301e6	3.316809176379775e22	1.5892653238545065	1.6121983815330412	0.3657498612264424	0.9993633763106281
0.015124424280649402	3.270225156372731e-26	5.359364698933301e6	3.316809176379775e22	1.5892653238545065	1.6121983815330412	0.3657498612264424	0.9993633763106281
0.015186505456474	3.322992192329405e-26	5.359364698933301e6	3.316809176379775e22	1.5892653238545065	1.6121983815330412	0.3657498612264424	0.9993633763106281
0.015248841456701846	3.3754338044690587e-26	5.359364698933301e6	3.316809176379775e22	1.5892653238545065	1.6121983815330412	0.3657498612264424	0.9993633763106281
0.01531143332730991	3.427492854447121e-26	5.359364698933301e6	3.316809176379775e22	1.5892653238545065	1.6121983815330412	0.3657498612264424	0.9993633763106281
0.015374282118568396	3.479110875486578e-26	5.359364698933301e6	3.316809176379775e22	1.5892653238545065	1.6121983815330412	0.3657498612264424	0.9993633763106281
0.015437388885058741	3.530258079796814e-26	5.359364698933301e6	3.316809176379775e22	1.5892653238545065	1.6121983815330412	0.3657498612264424	0.9993633763106281
0.015500754685691108	3.5825004827396666e-26	5.359364698933301e6	3.316809176379775e22	1.5892653238545065	1.6121983815330412	0.3657498612264424	0.9993633763106281
0.015564380583721988	3.6367199456694773e-26	5.359364698933301e6	3.316809176379775e22	1.5892653238545065	1.6121983815330412	0.3657498612264424	0.9993633763106281
0.015628267646772397	3.692873955652848e-26	5.359364698933301e6	3.316809176379775e22	1.5892653238545065	1.6121983815330412	0.3657498612264424	0.9993633763106281
0.015692416946845623	3.7509186034867465e-26	5.359364698933301e6	3.316809176379775e22	1.5892653238545065	1.6121983815330412	0.3657498612264424	0.9993633763106281
0.015756829560344996	3.8108085579593364e-26	5.359364698933301e6	3.316809176379775e22	1.5892653238545065	1.6121983815330412	0.3657498612264424	0.9993633763106281
0.015821506568092426	3.872497039718113e-26	5.359364698933301e6	3.316809176379775e22	1.5892653238545065	1.6121983815330412	0.3657498612264424	0.9993633763106281
0.015886449055346006	3.9359357947382254e-26	5.359364698933301e6	3.316809176379775e22	1.5892653238545065	1.6121983815330412	0.3657498612264424	0.9993633763106281
0.015951658111818673	4.001075067387302e-26	5.359364698933301e6	3.316809176379775e22	1.5892653238545065	1.6121983815330412	0.3657498612264424	0.9993633763106281
0.01601713483169632	4.067863573079598e-26	5.359364698933301e6	3.316809176379775e22	1.5892653238545065	1.6121983815330412	0.3657498612264424	0.9993633763106281
0.01608288031365592	4.136248470514237e-26	5.359364698933301e6	3.316809176379775e22	1.5892653238545065	1.6121983815330412	0.3657498612264424	0.9993633763106281
0.016148895660884406	4.20617533349252e-26	5.359364698933301e6	3.316809176379775e22	1.5892653238545065	1.6121983815330412	0.3657498612264424	0.9993633763106281
0.01621518198109695	4.277588122307103e-26	5.359364698933301e6	3.316809176379775e22	1.5892653238545065	1.6121983815330412	0.3657498612264424	0.9993633763106281
0.01628174038655535	4.3504291546976664e-26	5.359364698933301e6	3.316809176379775e22	1.5892653238545065	1.6121983815330412	0.3657498612264424	0.9993633763106281
0.01634857199408718	4.4246390763678654e-26	5.359364698933301e6	3.316809176379775e22	1.5892653238545065	1.6121983815330412	0.3657498612264424	0.9993633763106281
0.016415677925103976	4.500156831055548e-26	5.359364698933301e6	3.316809176379775e22	1.5892653238545065	1.6121983815330412	0.3657498612264424	0.9993633763106281
0.016483059305620537	4.5769196301522774e-26	5.359364698933301e6	3.316809176379775e22	1.5892653238545065	1.6121983815330412	0.3657498612264424	0.9993633763106281
0.016550717266273607	4.6548629218640055e-26	5.359364698933301e6	3.316809176379775e22	1.5892653238545065	1.6121983815330412	0.3657498612264424	0.9993633763106281
