r[m]	M[Msun]	rho[g/cm^3]	P[N/m^2]	n_e[pm^-3]	n_p[pm^-3]	muF_e[MeV]	B
0.00999999999999999	-1.7346895965543245e-39	3.0045517905605614e8	9.522453274842647e24	89.80555542403692	270.97168589465906	2.270296410693714	0.9964547249572708
0.010039322452834015	7.579673952841486e-27	3.0045517905605614e8	9.522453274842647e24	89.80555542403692	270.97168589465906	2.270296410693714	0.9964547249572708
0.01007879953119769	1.5401103907553658e-26	3.0045517905605614e8	9.522453274842647e24	89.80555542403692	270.97168589465906	2.270296410693714	0.9964547249572708
0.010118431843116601	2.343670206705366e-26	3.0045517905605614e8	9.522453274842647e24	89.80555542403692	270.97168589465906	2.270296410693714	0.9964547249572708
0.010158219999007127	3.165818950461086e-26	3.0045517905605614e8	9.522453274842647e24	89.80555542403692	270.97168589465906	2.270296410693714	0.9964547249572708
0.010198164611685987	4.003658461786149e-26	3.0045517905605614e8	9.522453274842647e24	89.80555542403692	270.97168589465906	2.270296410693714	0.9964547249572708
0.010238266296379613	4.854219141762394e-26	3.0045517905605614e8	9.522453274842647e24	89.80555542403692	270.97168589465906	2.270296410693714	0.9964547249572708
0.010278525670733769	5.714458764943135e-26	3.0045517905605614e8	9.522453274842647e24	89.80555542403692	270.97168589465906	2.270296410693714	0.9964547249572708
0.010318943354822845	6.581261274542754e-26	3.0045517905605614e8	9.522453274842647e24	89.80555542403692	270.97168589465906	2.270296410693714	0.9964547249572708
0.010359519971159505	7.451435560454197e-26	3.0045517905605614e8	9.522453274842647e24	89.80555542403692	270.97168589465906	2.270296410693714	0.9964547249572708
0.01040025614470441	8.321714219860106e-26	3.0045517905605614e8	9.522453274842647e24	89.80555542403692	270.97168589465906	2.270296410693714	0.9964547249572708
0.010441152502875603	9.188752300199605e-26	3.0045517905605614e8	9.522453274842647e24	89.80555542403692	270.97168589465906	2.270296410693714	0.9964547249572708
0.010482209675558322	1.0049358949980551e-25	3.0045517905605614e8	9.522453274842647e24	89.80555542403692	270.97168589465906	2.270296410693714	0.9964547249572708
0.010523428295114632	1.0924320718421057e-25	3.0045517905605614e8	9.522453274842647e24	89.80555542403692	270.97168589465906	2.270296410693714	0.9964547249572708
0.01056480899639332	1.1826548192795782e-25	3.0045517905605614e8	9.522453274842647e24	89.80555542403692	270.97168589465906	2.270296410693714	0.9964547249572708
0.010606352416739438	1.275269468732705e-25	3.0045517905605614e8	9.522453274842647e24	89.80555542403692	270.97168589465906	2.270296410693714	0.9964547249572708
0.010648059196004223	1.36993300110278e-25	3.0045517905605614e8	9.522453274842647e24	89.80555542403692	270.97168589465906	2.270296410693714	0.9964547249572708
0.010689929976555103	1.4662939074244562e-25	3.0045517905605614e8	9.522453274842647e24	89.80555542403692	270.97168589465906	2.270296410693714	0.9964547249572708
0.010731965403285314	1.5639920475269308e-25	3.0045517905605614e8	9.522453274842647e24	89.80555542403692	270.97168589465906	2.270296410693714	0.9964547249572708
0.010774166123624024	1.6626585066776148e-25	3.0045517905605614e8	9.522453274842647e24	89.80555542403692	270.97168589465906	2.270296410693714	0.9964547249572708
0.010816532787546195	1.7619154501799004e-25	3.0045517905605614e8	9.522453274842647e24	89.80555542403692	270.97168589465906	2.270296410693714	0.9964547249572708
0.010859066047582792	1.8613759758993068e-25	3.0045517905605614e8	9.522453274842647e24	89.80555542403692	270.97168589465906	2.270296410693714	0.9964547249572708
0.010901766558830557	1.9606439646888532e-25	3.0045517905605614e8	9.522453274842647e24	89.80555542403692	270.97168589465906	2.270296410693714	0.9964547249572708
0.01094463497896223	2.0593139286879086e-25	3.0045517905605614e8	9.522453274842647e24	89.80555542403692	270.97168589465906	2.270296410693714	0.9964547249572708
0.010987671968236818	2.158294099737772e-25	3.0045517905605614e8	9.522453274842647e24	89.80555542403692	270.97168589465906	2.270296410693714	0.9964547249572708
0.01103087818950949	2.2605815122520973e-25	3.0045517905605614e8	9.522453274842647e24	89.80555542403692	270.97168589465906	2.270296410693714	0.9964547249572708
0.011074254308241932	2.3661460840572425e-25	3.0045517905605614e8	9.522453274842647e24	89.80555542403692	270.97168589465906	2.270296410693714	0.9964547249572708
0.011117800992512718	2.474799617722482e-25	3.0045517905605614e8	9.522453274842647e24	89.80555542403692	270.97168589465906	2.270296410693714	0.9964547249572708
0.011161518913027335	2.586348941470288e-25	3.0045517905605614e8	9.522453274842647e24	89.80555542403692	270.97168589465906	2.270296410693714	0.9964547249572708
0.011205408743128696	2.7005958248684907e-25	3.0045517905605614e8	9.522453274842647e24	89.80555542403692	270.97168589465906	2.270296410693714	0.9964547249572708
0.011249471158807416	2.817336893308364e-25	3.0045517905605614e8	9.522453274842647e24	89.80555542403692	270.97168589465906	2.270296410693714	0.9964547249572708
0.011293706838712409	2.9363635412539646e-25	3.0045517905605614e8	9.522453274842647e24	89.80555542403692	270.97168589465906	2.270296410693714	0.9964547249572708
0.011338116464161068	3.057461844244342e-25	3.0045517905605614e8	9.522453274842647e24	89.80555542403692	270.97168589465906	2.270296410693714	0.9964547249572708
0.011382700719149886	3.18041246963452e-25	3.0045517905605614e8	9.522453274842647e24	89.80555542403692	270.97168589465906	2.270296410693714	0.9964547249572708
0.011427460290365147	3.3049905860573704e-25	3.0045517905605614e8	9.522453274842647e24	89.80555542403692	270.97168589465906	2.270296410693714	0.9964547249572708
0.011472395867193206	3.4309657715882315e-25	3.0045517905605614e8	9.522453274842647e24	89.80555542403692	270.97168589465906	2.270296410693714	0.9964547249572708
0.011517508141731303	3.558101920597585e-25	3.0045517905605614e8	9.522453274842647e24	89.80555542403692	270.97168589465906	2.270296410693714	0.9964547249572708
0.01156279780879813	3.686157149272332e-25	3.0045517905605614e8	9.522453274842647e24	89.80555542403692	270.97168589465906	2.270296410693714	0.9964547249572708
0.011608265565944716	3.814883699789535e-25	3.0045517905605614e8	9.522453274842647e24	89.80555542403692	270.97168589465906	2.270296410693714	0.9964547249572708
0.011653912113464886	3.944027843122838e-25	3.0045517905605614e8	9.522453274842647e24	89.80555542403692	270.97168589465906	2.270296410693714	0.9964547249572708
0.011699738154406197	4.073329780465883e-25	3.0045517905605614e8	9.522453274842647e24	89.80555542403692	270.97168589465906	2.270296410693714	0.9964547249572708
0.011745744394580907	4.202523543253311e-25	3.0045517905605614e8	9.522453274842647e24	89.80555542403692	270.97168589465906	2.270296410693714	0.9964547249572708
0.01179193154257655	4.331336891759558e-25	3.0045517905605614e8	9.522453274842647e24	89.80555542403692	270.97168589465906	2.270296410693714	0.9964547249572708
0.011838300309767052	4.459491212259343e-25	3.0045517905605614e8	9.522453274842647e24	89.80555542403692	270.97168589465906	2.270296410693714	0.9964547249572708
0.01188485141032359	4.586701412728596e-25	3.0045517905605614e8	9.522453274842647e24	89.80555542403692	270.97168589465906	2.270296410693714	0.9964547249572708
0.011931585561225774	4.713244995022198e-25	3.0045517905605614e8	9.522453274842647e24	89.80555542403692	270.97168589465906	2.270296410693714	0.9964547249572708
0.01197850348227242	4.84332588862642e-25	3.0045517905605614e8	9.522453274842647e24	89.80555542403692	270.97168589465906	2.270296410693714	0.9964547249572708
0.012025605896092757	4.977643973016414e-25	3.0045517905605614e8	9.522453274842647e24	89.80555542403692	270.97168589465906	2.270296410693714	0.9964547249572708
0.012072893528157725	5.11593482686541e-25	3.0045517905605614e8	9.522453274842647e24	89.80555542403692	270.97168589465906	2.270296410693714	0.9964547249572708
0.012120367106790845	5.257927097543584e-25	3.0045517905605614e8	9.522453274842647e24	89.80555542403692	270.97168589465906	2.270296410693714	0.9964547249572708
0.012168027363179632	5.4033423838952585e-25	3.0045517905605614e8	9.522453274842647e24	89.80555542403692	270.97168589465906	2.270296410693714	0.9964547249572708
0.012215875031386759	5.551895117329625e-25	3.0045517905605614e8	9.522453274842647e24	89.80555542403692	270.97168589465906	2.270296410693714	0.9964547249572708
0.012263910848361564	5.703292441204456e-25	3.0045517905605614e8	9.522453274842647e24	89.80555542403692	270.97168589465906	2.270296410693714	0.9964547249572708
0.012312135553951104	5.8572340884776015e-25	3.0045517905605614e8	9.522453274842647e24	89.80555542403692	270.97168589465906	2.270296410693714	0.9964547249572708
0.01236054989091169	6.013412257606299e-25	3.0045517905605614e8	9.522453274842647e24	89.80555542403692	270.97168589465906	2.270296410693714	0.9964547249572708
0.01240915460492049	6.171511486669686e-25	3.0045517905605614e8	9.522453274842647e24	89.80555542403692	270.97168589465906	2.270296410693714	0.9964547249572708
0.012457950444586701	6.331208525689436e-25	3.0045517905605614e8	9.522453274842647e24	89.80555542403692	270.97168589465906	2.270296410693714	0.9964547249572708
0.012506938161463291	6.492172207127784e-25	3.0045517905605614e8	9.522453274842647e24	89.80555542403692	270.97168589465906	2.270296410693714	0.9964547249572708
0.012556118510058462	6.654063314536247e-25	3.0045517905605614e8	9.522453274842647e24	89.80555542403692	270.97168589465906	2.270296410693714	0.9964547249572708
0.012605492247847483	6.816534449332421e-25	3.0045517905605614e8	9.522453274842647e24	89.80555542403692	270.97168589465906	2.270296410693714	0.9964547249572708
0.012655060135284049	6.979229895677647e-25	3.0045517905605614e8	9.522453274842647e24	89.80555542403692	270.97168589465906	2.270296410693714	0.9964547249572708
0.012704822935812142	7.141785483433353e-25	3.0045517905605614e8	9.522453274842647e24	89.80555542403692	270.97168589465906	2.270296410693714	0.9964547249572708
0.012754781415877955	7.303828449169482e-25	3.0045517905605614e8	9.522453274842647e24	89.80555542403692	270.97168589465906	2.270296410693714	0.9964547249572708
0.012804936344941373	7.464977295197519e-25	3.0045517905605614e8	9.522453274842647e24	89.80555542403692	270.97168589465906	2.270296410693714	0.9964547249572708
0.01285528849548804	7.624841646605457e-25	3.0045517905605614e8	9.522453274842647e24	89.80555542403692	270.97168589465906	2.270296410693714	0.9964547249572708
0.01290583864304115	7.7842755059122145e-25	3.0045517905605614e8	9.522453274842647e24	89.80555542403692	270.97168589465906	2.270296410693714	0.9964547249572708
0.012956587566173601	7.945950916201953e-25	3.0045517905605614e8	9.522453274842647e24	89.80555542403692	270.97168589465906	2.270296410693714	0.9964547249572708
0.013007536046519679	8.109997538669178e-25	3.0045517905605614e8	9.522453274842647e24	89.80555542403692	270.97168589465906	2.270296410693714	0.9964547249572708
0.013058684868787243	8.276438372882936e-25	3.0045517905605614e8	9.522453274842647e24	89.80555542403692	270.97168589465906	2.270296410693714	0.9964547249572708
0.013110034820769972	8.445296616614098e-25	3.0045517905605614e8	9.522453274842647e24	89.80555542403692	270.97168589465906	2.270296410693714	0.9964547249572708
0.01316158669335919	8.616595667462891e-25	3.0045517905605614e8	9.522453274842647e24	89.80555542403692	270.97168589465906	2.270296410693714	0.9964547249572708
0.013213341280556191	8.790359124500965e-25	3.0045517905605614e8	9.522453274842647e24	89.80555542403692	270.97168589465906	2.270296410693714	0.9964547249572708
0.013265299379484645	8.96661078992683e-25	3.0045517905605614e8	9.522453274842647e24	89.80555542403692	270.97168589465906	2.270296410693714	0.9964547249572708
0.013317461790402548	9.14537467073289e-25	3.0045517905605614e8	9.522453274842647e24	89.80555542403692	270.97168589465906	2.270296410693714	0.9964547249572708
0.013369829316714751	9.326674980387648e-25	3.0045517905605614e8	9.522453274842647e24	89.80555542403692	270.97168589465906	2.270296410693714	0.9964547249572708
0.013422402764985247	9.510536140530469e-25	3.0045517905605614e8	9.522453274842647e24	89.80555542403692	270.97168589465906	2.270296410693714	0.9964547249572708
0.01347518294494979	9.696982782680974e-25	3.0045517905605614e8	9.522453274842647e24	89.80555542403692	270.97168589465906	2.270296410693714	0.9964547249572708
0.013528170669528055	9.886039749960332e-25	3.0045517905605614e8	9.522453274842647e24	89.80555542403692	270.97168589465906	2.270296410693714	0.9964547249572708
0.013581366754836316	1.0077732098828064e-24	3.0045517905605614e8	9.522453274842647e24	89.80555542403692	270.97168589465906	2.270296410693714	0.9964547249572708
0.013634772020200183	1.0272085100832882e-24	3.0045517905605614e8	9.522453274842647e24	89.80555542403692	270.97168589465906	2.270296410693714	0.9964547249572708
0.013688387288166884	1.0469124244375742e-24	3.0045517905605614e8	9.522453274842647e24	89.80555542403692	270.97168589465906	2.270296410693714	0.9964547249572708
0.013742213384518167	1.0668875236489093e-24	3.0045517905605614e8	9.522453274842647e24	89.80555542403692	270.97168589465906	2.270296410693714	0.9964547249572708
0.013796251138282895	1.0871364004629225e-24	3.0045517905605614e8	9.522453274842647e24	89.80555542403692	270.97168589465906	2.270296410693714	0.9964547249572708
0.013850501381750044	1.1076616698484165e-24	3.0045517905605614e8	9.522453274842647e24	89.80555542403692	270.97168589465906	2.270296410693714	0.9964547249572708
0.013904964950481193	1.1284659691794214e-24	3.0045517905605614e8	9.522453274842647e24	89.80555542403692	270.97168589465906	2.270296410693714	0.9964547249572708
0.013959642683323541	1.1495519584188724e-24	3.0045517905605614e8	9.522453274842647e24	89.80555542403692	270.97168589465906	2.270296410693714	0.9964547249572708
0.014014535422423027	1.170922320303785e-24	3.0045517905605614e8	9.522453274842647e24	89.80555542403692	270.97168589465906	2.270296410693714	0.9964547249572708
0.014069644013236928	1.1925797605317127e-24	3.0045517905605614e8	9.522453274842647e24	89.80555542403692	270.97168589465906	2.270296410693714	0.9964547249572708
0.014124969304547132	1.2145270079489218e-24	3.0045517905605614e8	9.522453274842647e24	89.80555542403692	270.97168589465906	2.270296410693714	0.9964547249572708
0.014180512148473084	1.2367668147399476e-24	3.0045517905605614e8	9.522453274842647e24	89.80555542403692	270.97168589465906	2.270296410693714	0.9964547249572708
0.014236273400485153	1.2593019566188063e-24	3.0045517905605614e8	9.522453274842647e24	89.80555542403692	270.97168589465906	2.270296410693714	0.9964547249572708
0.01429225391941744	1.282135233021506e-24	3.0045517905605614e8	9.522453274842647e24	89.80555542403692	270.97168589465906	2.270296410693714	0.9964547249572708
0.014348454567481201	1.3052694673003266e-24	3.0045517905605614e8	9.522453274842647e24	89.80555542403692	270.97168589465906	2.270296410693714	0.9964547249572708
0.014404876210278297	1.3287075069196493e-24	3.0045517905605614e8	9.522453274842647e24	89.80555542403692	270.97168589465906	2.270296410693714	0.9964547249572708
0.014461519716814161	1.3524522236531386e-24	3.0045517905605614e8	9.522453274842647e24	89.80555542403692	270.97168589465906	2.270296410693714	0.9964547249572708
0.014518385959511437	1.3765065137827615e-24	3.0045517905605614e8	9.522453274842647e24	89.80555542403692	270.97168589465906	2.270296410693714	0.9964547249572708
0.014575475814223285	1.400873298299252e-24	3.0045517905605614e8	9.522453274842647e24	89.80555542403692	270.97168589465906	2.270296410693714	0.9964547249572708
0.01463279016024711	1.4255555231043201e-24	3.0045517905605614e8	9.522453274842647e24	89.80555542403692	270.97168589465906	2.270296410693714	0.9964547249572708
0.014690329880337765	1.4505561592142652e-24	3.0045517905605614e8	9.522453274842647e24	89.80555542403692	270.97168589465906	2.270296410693714	0.9964547249572708
0.01474809586072129	1.475878202965403e-24	3.0045517905605614e8	9.522453274842647e24	89.80555542403692	270.97168589465906	2.270296410693714	0.9964547249572708
0.014806088991108779	1.5015246762211904e-24	3.0045517905605614e8	9.522453274842647e24	89.80555542403692	270.97168589465906	2.270296410693714	0.9964547249572708
0.014864310164709706	1.5274986265807516e-24	3.0045517905605614e8	9.522453274842647e24	89.80555542403692	270.97168589465906	2.270296410693714	0.9964547249572708
0.014922760278245918	1.5538031275893308e-24	3.0045517905605614e8	9.522453274842647e24	89.80555542403692	270.97168589465906	2.270296410693714	0.9964547249572708
0.014981440231965338	1.5804412789503037e-24	3.0045517905605614e8	9.522453274842647e24	89.80555542403692	270.97168589465906	2.270296410693714	0.9964547249572708
0.015040350929656061	1.6074162067390214e-24	3.0045517905605614e8	9.522453274842647e24	89.80555542403692	270.97168589465906	2.270296410693714	0.9964547249572708
0.01509949327865992	1.6347310636181184e-24	3.0045517905605614e8	9.522453274842647e24	89.80555542403692	270.97168589465906	2.270296410693714	0.9964547249572708
0.015158868189886638	1.6623890290547814e-24	3.0045517905605614e8	9.522453274842647e24	89.80555542403692	270.97168589465906	2.270296410693714	0.9964547249572708
0.015218476577828042	1.6903933095397677e-24	3.0045517905605614e8	9.522453274842647e24	89.80555542403692	270.97168589465906	2.270296410693714	0.9964547249572708
0.015278319360571778	1.718747138807923e-24	3.0045517905605614e8	9.522453274842647e24	89.80555542403692	270.97168589465906	2.270296410693714	0.9964547249572708
0.015338397459815705	1.747453778060755e-24	3.0045517905605614e8	9.522453274842647e24	89.80555542403692	270.97168589465906	2.270296410693714	0.9964547249572708
0.015398711800881955	1.7765165161906086e-24	3.0045517905605614e8	9.522453274842647e24	89.80555542403692	270.97168589465906	2.270296410693714	0.9964547249572708
0.015459263312731451	1.8059386700068385e-24	3.0045517905605614e8	9.522453274842647e24	89.80555542403692	270.97168589465906	2.270296410693714	0.9964547249572708
0.015520052927977817	1.835723584463463e-24	3.0045517905605614e8	9.522453274842647e24	89.80555542403692	270.97168589465906	2.270296410693714	0.9964547249572708
0.01558108158290195	1.865874632888943e-24	3.0045517905605614e8	9.522453274842647e24	89.80555542403692	270.97168589465906	2.270296410693714	0.9964547249572708
0.01564235021746663	1.8963952172177935e-24	3.0045517905605614e8	9.522453274842647e24	89.80555542403692	270.97168589465906	2.270296410693714	0.9964547249572708
0.015703859775330595	1.927288768223759e-24	3.0045517905605614e8	9.522453274842647e24	89.80555542403692	270.97168589465906	2.270296410693714	0.9964547249572708
0.01576561120386329	1.9585587457551633e-24	3.0045517905605614e8	9.522453274842647e24	89.80555542403692	270.97168589465906	2.270296410693714	0.9964547249572708
0.01582760545415964	1.990208638972129e-24	3.0045517905605614e8	9.522453274842647e24	89.80555542403692	270.97168589465906	2.270296410693714	0.9964547249572708
0.015889843481054315	2.0222419665854183e-24	3.0045517905605614e8	9.522453274842647e24	89.80555542403692	270.97168589465906	2.270296410693714	0.9964547249572708
0.015952326243136698	2.0546622770974984e-24	3.0045517905605614e8	9.522453274842647e24	89.80555542403692	270.97168589465906	2.270296410693714	0.9964547249572708
0.016015054702765503	2.0874731490453532e-24	3.0045517905605614e8	9.522453274842647e24	89.80555542403692	270.97168589465906	2.270296410693714	0.9964547249572708
0.01607802982608389	2.120678191245451e-24	3.0045517905605614e8	9.522453274842647e24	89.80555542403692	270.97168589465906	2.270296410693714	0.9964547249572708
0.016141252583033915	2.154281043040302e-24	3.0045517905605614e8	9.522453274842647e24	89.80555542403692	270.97168589465906	2.270296410693714	0.9964547249572708
0.016204723947371692	2.188285374547332e-24	3.0045517905605614e8	9.522453274842647e24	89.80555542403692	270.97168589465906	2.270296410693714	0.9964547249572708
0.016268444896682586	2.2226948869097383e-24	3.0045517905605614e8	9.522453274842647e24	89.80555542403692	270.97168589465906	2.270296410693714	0.9964547249572708
