r[m]	M[Msun]	rho[g/cm^3]	P[N/m^2]	n_e[pm^-3]	n_p[pm^-3]	muF_e[MeV]	B
0.010000000000000014	2.165000194149196e-39	2.35511492124373e8	6.771343770324833e24	69.82730678800897	53.144166760729235	2.054397239769095	0.9967945668060535
0.010039421120070167	5.956450879871553e-27	2.35511492124373e8	6.771343770324833e24	69.82730678800897	53.144166760729235	2.054397239769095	0.9967945668060535
0.01007899764261108	1.2103324148093397e-26	2.35511492124373e8	6.771343770324833e24	69.82730678800897	53.144166760729235	2.054397239769095	0.9967945668060535
0.010118730180236698	1.8418852425301081e-26	2.35511492124373e8	6.771343770324833e24	69.82730678800897	53.144166760729235	2.054397239769095	0.9967945668060535
0.010158619347975958	2.488072162015606e-26	2.35511492124373e8	6.771343770324833e24	69.82730678800897	53.144166760729235	2.054397239769095	0.9967945668060535
0.010198665763282313	3.1466061772881736e-26	2.35511492124373e8	6.771343770324833e24	69.82730678800897	53.144166760729235	2.054397239769095	0.9967945668060535
0.010238870046043286	3.8151437767495646e-26	2.35511492124373e8	6.771343770324833e24	69.82730678800897	53.144166760729235	2.054397239769095	0.9967945668060535
0.010279232818590063	4.4912839910999266e-26	2.35511492124373e8	6.771343770324833e24	69.82730678800897	53.144166760729235	2.054397239769095	0.9967945668060535
0.010319754705707134	5.172567437775853e-26	2.35511492124373e8	6.771343770324833e24	69.82730678800897	53.144166760729235	2.054397239769095	0.9967945668060535
0.010360436334641955	5.85647535172849e-26	2.35511492124373e8	6.771343770324833e24	69.82730678800897	53.144166760729235	2.054397239769095	0.9967945668060535
0.010401278335114667	6.540428602361098e-26	2.35511492124373e8	6.771343770324833e24	69.82730678800897	53.144166760729235	2.054397239769095	0.9967945668060535
0.010442281339327831	7.221786696442161e-26	2.35511492124373e8	6.771343770324833e24	69.82730678800897	53.144166760729235	2.054397239769095	0.9967945668060535
0.010483445981976229	7.898100483914748e-26	2.35511492124373e8	6.771343770324833e24	69.82730678800897	53.144166760729235	2.054397239769095	0.9967945668060535
0.010524772900256675	8.58620717071879e-26	2.35511492124373e8	6.771343770324833e24	69.82730678800897	53.144166760729235	2.054397239769095	0.9967945668060535
0.010566262733877887	9.295742871277485e-26	2.35511492124373e8	6.771343770324833e24	69.82730678800897	53.144166760729235	2.054397239769095	0.9967945668060535
0.010607916125070387	1.0024065254377366e-25	2.35511492124373e8	6.771343770324833e24	69.82730678800897	53.144166760729235	2.054397239769095	0.9967945668060535
0.010649733718596439	1.0768465900393706e-25	2.35511492124373e8	6.771343770324833e24	69.82730678800897	53.144166760729235	2.054397239769095	0.9967945668060535
0.01069171616176008	1.1526169195730517e-25	2.35511492124373e8	6.771343770324833e24	69.82730678800897	53.144166760729235	2.054397239769095	0.9967945668060535
0.010733864104416955	1.2294331211410973e-25	2.35511492124373e8	6.771343770324833e24	69.82730678800897	53.144166760729235	2.054397239769095	0.9967945668060535
0.010776178198984649	1.3070038565620833e-25	2.35511492124373e8	6.771343770324833e24	69.82730678800897	53.144166760729235	2.054397239769095	0.9967945668060535
0.010818659100452604	1.3850307269975002e-25	2.35511492124373e8	6.771343770324833e24	69.82730678800897	53.144166760729235	2.054397239769095	0.9967945668060535
0.010861307466392306	1.4632081559303752e-25	2.35511492124373e8	6.771343770324833e24	69.82730678800897	53.144166760729235	2.054397239769095	0.9967945668060535
0.010904123956967457	1.5412232704735756e-25	2.35511492124373e8	6.771343770324833e24	69.82730678800897	53.144166760729235	2.054397239769095	0.9967945668060535
0.010947109234944203	1.6187557809857027e-25	2.35511492124373e8	6.771343770324833e24	69.82730678800897	53.144166760729235	2.054397239769095	0.9967945668060535
0.010990263965701385	1.696628271435825e-25	2.35511492124373e8	6.771343770324833e24	69.82730678800897	53.144166760729235	2.054397239769095	0.9967945668060535
0.011033588817240845	1.7771339662715583e-25	2.35511492124373e8	6.771343770324833e24	69.82730678800897	53.144166760729235	2.054397239769095	0.9967945668060535
0.011077084460197761	1.8602162156378426e-25	2.35511492124373e8	6.771343770324833e24	69.82730678800897	53.144166760729235	2.054397239769095	0.9967945668060535
0.011120751567851032	1.9457263354517013e-25	2.35511492124373e8	6.771343770324833e24	69.82730678800897	53.144166760729235	2.054397239769095	0.9967945668060535
0.011164590816133692	2.033511702870635e-25	2.35511492124373e8	6.771343770324833e24	69.82730678800897	53.144166760729235	2.054397239769095	0.9967945668060535
0.011208602883643386	2.1234156893730954e-25	2.35511492124373e8	6.771343770324833e24	69.82730678800897	53.144166760729235	2.054397239769095	0.9967945668060535
0.011252788451652864	2.2152775928734846e-25	2.35511492124373e8	6.771343770324833e24	69.82730678800897	53.144166760729235	2.054397239769095	0.9967945668060535
0.01129714820412053	2.3089325688587177e-25	2.35511492124373e8	6.771343770324833e24	69.82730678800897	53.144166760729235	2.054397239769095	0.9967945668060535
0.011341682827701028	2.4042115605334467e-25	2.35511492124373e8	6.771343770324833e24	69.82730678800897	53.144166760729235	2.054397239769095	0.9967945668060535
0.011386393011755869	2.500941227960616e-25	2.35511492124373e8	6.771343770324833e24	69.82730678800897	53.144166760729235	2.054397239769095	0.9967945668060535
0.011431279448364107	2.5989438761841397e-25	2.35511492124373e8	6.771343770324833e24	69.82730678800897	53.144166760729235	2.054397239769095	0.9967945668060535
0.011476342832333052	2.69803738232005e-25	2.35511492124373e8	6.771343770324833e24	69.82730678800897	53.144166760729235	2.054397239769095	0.9967945668060535
0.011521583861209017	2.798035121602441e-25	2.35511492124373e8	6.771343770324833e24	69.82730678800897	53.144166760729235	2.054397239769095	0.9967945668060535
0.011567003235288125	2.898745892370429e-25	2.35511492124373e8	6.771343770324833e24	69.82730678800897	53.144166760729235	2.054397239769095	0.9967945668060535
0.01161260165762714	2.9999738399819056e-25	2.35511492124373e8	6.771343770324833e24	69.82730678800897	53.144166760729235	2.054397239769095	0.9967945668060535
0.011658379834054359	3.1015183796400467e-25	2.35511492124373e8	6.771343770324833e24	69.82730678800897	53.144166760729235	2.054397239769095	0.9967945668060535
0.011704338473180531	3.20317411811799e-25	2.35511492124373e8	6.771343770324833e24	69.82730678800897	53.144166760729235	2.054397239769095	0.9967945668060535
0.01175047828640983	3.304730774367202e-25	2.35511492124373e8	6.771343770324833e24	69.82730678800897	53.144166760729235	2.054397239769095	0.9967945668060535
0.011796799987950858	3.4059730989947127e-25	2.35511492124373e8	6.771343770324833e24	69.82730678800897	53.144166760729235	2.054397239769095	0.9967945668060535
0.011843304294827718	3.506680792594264e-25	2.35511492124373e8	6.771343770324833e24	69.82730678800897	53.144166760729235	2.054397239769095	0.9967945668060535
0.011889991926891096	3.606628422916177e-25	2.35511492124373e8	6.771343770324833e24	69.82730678800897	53.144166760729235	2.054397239769095	0.9967945668060535
0.01193686360682941	3.706197192604229e-25	2.35511492124373e8	6.771343770324833e24	69.82730678800897	53.144166760729235	2.054397239769095	0.9967945668060535
0.011983920060179998	3.808721394246098e-25	2.35511492124373e8	6.771343770324833e24	69.82730678800897	53.144166760729235	2.054397239769095	0.9967945668060535
0.012031162015340349	3.914569651704245e-25	2.35511492124373e8	6.771343770324833e24	69.82730678800897	53.144166760729235	2.054397239769095	0.9967945668060535
0.012078590203579369	4.023532809662804e-25	2.35511492124373e8	6.771343770324833e24	69.82730678800897	53.144166760729235	2.054397239769095	0.9967945668060535
0.012126205359048767	4.1353962197425748e-25	2.35511492124373e8	6.771343770324833e24	69.82730678800897	53.144166760729235	2.054397239769095	0.9967945668060535
0.012174008218794208	4.249939647382648e-25	2.35511492124373e8	6.771343770324833e24	69.82730678800897	53.144166760729235	2.054397239769095	0.9967945668060535
0.012221999522767021	4.366937177380945e-25	2.35511492124373e8	6.771343770324833e24	69.82730678800897	53.144166760729235	2.054397239769095	0.9967945668060535
0.012270180013835457	4.486157118073525e-25	2.35511492124373e8	6.771343770324833e24	69.82730678800897	53.144166760729235	2.054397239769095	0.9967945668060535
0.01231855043779624	4.607361904136245e-25	2.35511492124373e8	6.771343770324833e24	69.82730678800897	53.144166760729235	2.054397239769095	0.9967945668060535
0.012367111543386102	4.7303079979897845e-25	2.35511492124373e8	6.771343770324833e24	69.82730678800897	53.144166760729235	2.054397239769095	0.9967945668060535
0.012415864082293383	4.854745789789572e-25	2.35511492124373e8	6.771343770324833e24	69.82730678800897	53.144166760729235	2.054397239769095	0.9967945668060535
0.012464808809169663	4.98041949598184e-25	2.35511492124373e8	6.771343770324833e24	69.82730678800897	53.144166760729235	2.054397239769095	0.9967945668060535
0.012513946481641442	5.107067056406735e-25	2.35511492124373e8	6.771343770324833e24	69.82730678800897	53.144166760729235	2.054397239769095	0.9967945668060535
0.012563277860321869	5.23442002992923e-25	2.35511492124373e8	6.771343770324833e24	69.82730678800897	53.144166760729235	2.054397239769095	0.9967945668060535
0.012612803708822515	5.362203488578307e-25	2.35511492124373e8	6.771343770324833e24	69.82730678800897	53.144166760729235	2.054397239769095	0.9967945668060535
0.012662524793765192	5.490135910174635e-25	2.35511492124373e8	6.771343770324833e24	69.82730678800897	53.144166760729235	2.054397239769095	0.9967945668060535
0.012712441884793825	5.617929069426749e-25	2.35511492124373e8	6.771343770324833e24	69.82730678800897	53.144166760729235	2.054397239769095	0.9967945668060535
0.012762555754586357	5.74528792747537e-25	2.35511492124373e8	6.771343770324833e24	69.82730678800897	53.144166760729235	2.054397239769095	0.9967945668060535
0.012812867178866715	5.871910519865445e-25	2.35511492124373e8	6.771343770324833e24	69.82730678800897	53.144166760729235	2.054397239769095	0.9967945668060535
0.01286337693641682	5.997487842925008e-25	2.35511492124373e8	6.771343770324833e24	69.82730678800897	53.144166760729235	2.054397239769095	0.9967945668060535
0.012914085809088633	6.12299048404339e-25	2.35511492124373e8	6.771343770324833e24	69.82730678800897	53.144166760729235	2.054397239769095	0.9967945668060535
0.01296499458181627	6.250322620347092e-25	2.35511492124373e8	6.771343770324833e24	69.82730678800897	53.144166760729235	2.054397239769095	0.9967945668060535
0.013016104042628136	6.379526217560456e-25	2.35511492124373e8	6.771343770324833e24	69.82730678800897	53.144166760729235	2.054397239769095	0.9967945668060535
0.013067414982659143	6.510619471945793e-25	2.35511492124373e8	6.771343770324833e24	69.82730678800897	53.144166760729235	2.054397239769095	0.9967945668060535
0.013118928196162937	6.643620736962659e-25	2.35511492124373e8	6.771343770324833e24	69.82730678800897	53.144166760729235	2.054397239769095	0.9967945668060535
0.013170644480524202	6.778548524562791e-25	2.35511492124373e8	6.771343770324833e24	69.82730678800897	53.144166760729235	2.054397239769095	0.9967945668060535
0.013222564636271009	6.915421506495371e-25	2.35511492124373e8	6.771343770324833e24	69.82730678800897	53.144166760729235	2.054397239769095	0.9967945668060535
0.013274689467087193	7.054258515622824e-25	2.35511492124373e8	6.771343770324833e24	69.82730678800897	53.144166760729235	2.054397239769095	0.9967945668060535
0.013327019779824797	7.195078547247223e-25	2.35511492124373e8	6.771343770324833e24	69.82730678800897	53.144166760729235	2.054397239769095	0.9967945668060535
0.013379556384516576	7.337900760447415e-25	2.35511492124373e8	6.771343770324833e24	69.82730678800897	53.144166760729235	2.054397239769095	0.9967945668060535
0.013432300094388519	7.482744479426897e-25	2.35511492124373e8	6.771343770324833e24	69.82730678800897	53.144166760729235	2.054397239769095	0.9967945668060535
0.013485251725872442	7.629629194872535e-25	2.35511492124373e8	6.771343770324833e24	69.82730678800897	53.144166760729235	2.054397239769095	0.9967945668060535
0.01353841209861863	7.778574565324246e-25	2.35511492124373e8	6.771343770324833e24	69.82730678800897	53.144166760729235	2.054397239769095	0.9967945668060535
0.013591782035508518	7.929600418555748e-25	2.35511492124373e8	6.771343770324833e24	69.82730678800897	53.144166760729235	2.054397239769095	0.9967945668060535
0.013645362362667432	8.082726752966383e-25	2.35511492124373e8	6.771343770324833e24	69.82730678800897	53.144166760729235	2.054397239769095	0.9967945668060535
0.013699153909477381	8.237973738984164e-25	2.35511492124373e8	6.771343770324833e24	69.82730678800897	53.144166760729235	2.054397239769095	0.9967945668060535
0.01375315750858994	8.395361720480328e-25	2.35511492124373e8	6.771343770324833e24	69.82730678800897	53.144166760729235	2.054397239769095	0.9967945668060535
0.013807373995938925	8.554911216194392e-25	2.35511492124373e8	6.771343770324833e24	69.82730678800897	53.144166760729235	2.054397239769095	0.9967945668060535
0.013861804210753668	8.716642921172411e-25	2.35511492124373e8	6.771343770324833e24	69.82730678800897	53.144166760729235	2.054397239769095	0.9967945668060535
0.013916448995571777	8.8805777082151e-25	2.35511492124373e8	6.771343770324833e24	69.82730678800897	53.144166760729235	2.054397239769095	0.9967945668060535
0.01397130919625224	9.046736629338432e-25	2.35511492124373e8	6.771343770324833e24	69.82730678800897	53.144166760729235	2.054397239769095	0.9967945668060535
0.01402638566198851	9.215140917245932e-25	2.35511492124373e8	6.771343770324833e24	69.82730678800897	53.144166760729235	2.054397239769095	0.9967945668060535
0.014081679245321664	9.385811986812726e-25	2.35511492124373e8	6.771343770324833e24	69.82730678800897	53.144166760729235	2.054397239769095	0.9967945668060535
0.014137190802153586	9.558771436581608e-25	2.35511492124373e8	6.771343770324833e24	69.82730678800897	53.144166760729235	2.054397239769095	0.9967945668060535
0.014192921191760225	9.73404105027104e-25	2.35511492124373e8	6.771343770324833e24	69.82730678800897	53.144166760729235	2.054397239769095	0.9967945668060535
0.014248871276804884	9.911642798295422e-25	2.35511492124373e8	6.771343770324833e24	69.82730678800897	53.144166760729235	2.054397239769095	0.9967945668060535
0.014305041923351594	1.0091598839297537e-24	2.35511492124373e8	6.771343770324833e24	69.82730678800897	53.144166760729235	2.054397239769095	0.9967945668060535
0.014361434000878498	1.027393152169329e-24	2.35511492124373e8	6.771343770324833e24	69.82730678800897	53.144166760729235	2.054397239769095	0.9967945668060535
0.01441804838229132	1.0458663385228974e-24	2.35511492124373e8	6.771343770324833e24	69.82730678800897	53.144166760729235	2.054397239769095	0.9967945668060535
0.01447488594393688	1.064581716255097e-24	2.35511492124373e8	6.771343770324833e24	69.82730678800897	53.144166760729235	2.054397239769095	0.9967945668060535
0.014531947565616654	1.0835415780788122e-24	2.35511492124373e8	6.771343770324833e24	69.82730678800897	53.144166760729235	2.054397239769095	0.9967945668060535
0.014589234130600391	1.1027482363146866e-24	2.35511492124373e8	6.771343770324833e24	69.82730678800897	53.144166760729235	2.054397239769095	0.9967945668060535
0.014646746525639789	1.1222040230519136e-24	2.35511492124373e8	6.771343770324833e24	69.82730678800897	53.144166760729235	2.054397239769095	0.9967945668060535
0.014704485640982225	1.1419112903103258e-24	2.35511492124373e8	6.771343770324833e24	69.82730678800897	53.144166760729235	2.054397239769095	0.9967945668060535
0.014762452370384527	1.1618724102037843e-24	2.35511492124373e8	6.771343770324833e24	69.82730678800897	53.144166760729235	2.054397239769095	0.9967945668060535
0.014820647611126813	1.1820897751048854e-24	2.35511492124373e8	6.771343770324833e24	69.82730678800897	53.144166760729235	2.054397239769095	0.9967945668060535
0.014879072264026379	1.2025657978109846e-24	2.35511492124373e8	6.771343770324833e24	69.82730678800897	53.144166760729235	2.054397239769095	0.9967945668060535
0.014937727233451648	1.2233029117115726e-24	2.35511492124373e8	6.771343770324833e24	69.82730678800897	53.144166760729235	2.054397239769095	0.9967945668060535
0.01499661342733616	1.2443035709569743e-24	2.35511492124373e8	6.771343770324833e24	69.82730678800897	53.144166760729235	2.054397239769095	0.9967945668060535
0.01505573175719263	1.2655702506284209e-24	2.35511492124373e8	6.771343770324833e24	69.82730678800897	53.144166760729235	2.054397239769095	0.9967945668060535
0.015115083138127062	1.2871054469094882e-24	2.35511492124373e8	6.771343770324833e24	69.82730678800897	53.144166760729235	2.054397239769095	0.9967945668060535
0.01517466848885291	1.308911677258902e-24	2.35511492124373e8	6.771343770324833e24	69.82730678800897	53.144166760729235	2.054397239769095	0.9967945668060535
0.015234488731705296	1.3309914805847458e-24	2.35511492124373e8	6.771343770324833e24	69.82730678800897	53.144166760729235	2.054397239769095	0.9967945668060535
0.015294544792655292	1.3533474174200633e-24	2.35511492124373e8	6.771343770324833e24	69.82730678800897	53.144166760729235	2.054397239769095	0.9967945668060535
0.015354837601324252	1.3759820700998669e-24	2.35511492124373e8	6.771343770324833e24	69.82730678800897	53.144166760729235	2.054397239769095	0.9967945668060535
0.015415368090998206	1.3988980429395836e-24	2.35511492124373e8	6.771343770324833e24	69.82730678800897	53.144166760729235	2.054397239769095	0.9967945668060535
0.015476137198642293	1.4220979624149167e-24	2.35511492124373e8	6.771343770324833e24	69.82730678800897	53.144166760729235	2.054397239769095	0.9967945668060535
0.015537145864915277	1.4455844773431685e-24	2.35511492124373e8	6.771343770324833e24	69.82730678800897	53.144166760729235	2.054397239769095	0.9967945668060535
0.015598395034184111	1.4693602590660107e-24	2.35511492124373e8	6.771343770324833e24	69.82730678800897	53.144166760729235	2.054397239769095	0.9967945668060535
0.015659885654538602	1.4934280016337506e-24	2.35511492124373e8	6.771343770324833e24	69.82730678800897	53.144166760729235	2.054397239769095	0.9967945668060535
0.015721618677805846	1.517790421990957e-24	2.35511492124373e8	6.771343770324833e24	69.82730678800897	53.144166760729235	2.054397239769095	0.9967945668060535
0.015783595059565343	1.5424502601638213e-24	2.35511492124373e8	6.771343770324833e24	69.82730678800897	53.144166760729235	2.054397239769095	0.9967945668060535
0.015845815759163526	1.5674102794487768e-24	2.35511492124373e8	6.771343770324833e24	69.82730678800897	53.144166760729235	2.054397239769095	0.9967945668060535
0.015908281739728677	1.592673266602758e-24	2.35511492124373e8	6.771343770324833e24	69.82730678800897	53.144166760729235	2.054397239769095	0.9967945668060535
0.015970993968185843	1.6182420320349646e-24	2.35511492124373e8	6.771343770324833e24	69.82730678800897	53.144166760729235	2.054397239769095	0.9967945668060535
0.016033953415271803	1.6441194100001655e-24	2.35511492124373e8	6.771343770324833e24	69.82730678800897	53.144166760729235	2.054397239769095	0.9967945668060535
0.01609716105555007	1.670308258793543e-24	2.35511492124373e8	6.771343770324833e24	69.82730678800897	53.144166760729235	2.054397239769095	0.9967945668060535
0.016160617867426015	1.6968114609471306e-24	2.35511492124373e8	6.771343770324833e24	69.82730678800897	53.144166760729235	2.054397239769095	0.9967945668060535
0.016224324833161986	1.7236319234277977e-24	2.35511492124373e8	6.771343770324833e24	69.82730678800897	53.144166760729235	2.054397239769095	0.9967945668060535
0.01628828293889251	1.7507725778368356e-24	2.35511492124373e8	6.771343770324833e24	69.82730678800897	53.144166760729235	2.054397239769095	0.9967945668060535
0.016352493174639583	1.77823638061116e-24	2.35511492124373e8	6.771343770324833e24	69.82730678800897	53.144166760729235	2.054397239769095	0.9967945668060535
