r[m]	M[Msun]	rho[g/cm^3]	P[N/m^2]	n_e[pm^-3]	n_p[pm^-3]	muF_e[MeV]	B
0.009999999999999985	-1.47246907614495e-39	1.588851905146113e8	3.967089289810138e24	47.12348058789294	35.85739261258958	1.752561685744666	0.9972334052658479
0.01003960712483963	4.037859100180804e-27	1.588851905146113e8	3.967089289810138e24	47.12348058789294	35.85739261258958	1.752561685744666	0.9972334052658479
0.010079371122113082	8.20608817842728e-27	1.588851905146113e8	3.967089289810138e24	47.12348058789294	35.85739261258958	1.752561685744666	0.9972334052658479
0.010119292613146948	1.2490439516057015e-26	1.588851905146113e8	3.967089289810138e24	47.12348058789294	35.85739261258958	1.752561685744666	0.9972334052658479
0.010159372221728729	1.6876304824933068e-26	1.588851905146113e8	3.967089289810138e24	47.12348058789294	35.85739261258958	1.752561685744666	0.9972334052658479
0.010199610574116573	2.1348709175146823e-26	1.588851905146113e8	3.967089289810138e24	47.12348058789294	35.85739261258958	1.752561685744666	0.9972334052658479
0.010240008299049055	2.589230483518136e-26	1.588851905146113e8	3.967089289810138e24	47.12348058789294	35.85739261258958	1.752561685744666	0.9972334052658479
0.010280566027755	3.049136502339228e-26	1.588851905146113e8	3.967089289810138e24	47.12348058789294	35.85739261258958	1.752561685744666	0.9972334052658479
0.010321284393963352	3.5129777569620804e-26	1.588851905146113e8	3.967089289810138e24	47.12348058789294	35.85739261258958	1.752561685744666	0.9972334052658479
0.010362164033913072	3.979103848574013e-26	1.588851905146113e8	3.967089289810138e24	47.12348058789294	35.85739261258958	1.752561685744666	0.9972334052658479
0.010403205586363082	4.445824544392411e-26	1.588851905146113e8	3.967089289810138e24	47.12348058789294	35.85739261258958	1.752561685744666	0.9972334052658479
0.01044440969260224	4.91140911614085e-26	1.588851905146113e8	3.967089289810138e24	47.12348058789294	35.85739261258958	1.752561685744666	0.9972334052658479
0.01048577699645937	5.374085669050192e-26	1.588851905146113e8	3.967089289810138e24	47.12348058789294	35.85739261258958	1.752561685744666	0.9972334052658479
0.010527308144313316	5.83741426358657e-26	1.588851905146113e8	3.967089289810138e24	47.12348058789294	35.85739261258958	1.752561685744666	0.9972334052658479
0.01056900378510304	6.315244152588786e-26	1.588851905146113e8	3.967089289810138e24	47.12348058789294	35.85739261258958	1.752561685744666	0.9972334052658479
0.010610864570337768	6.80684343193175e-26	1.588851905146113e8	3.967089289810138e24	47.12348058789294	35.85739261258958	1.752561685744666	0.9972334052658479
0.010652891154107162	7.310443608250918e-26	1.588851905146113e8	3.967089289810138e24	47.12348058789294	35.85739261258958	1.752561685744666	0.9972334052658479
0.01069508419309155	7.824231842148164e-26	1.588851905146113e8	3.967089289810138e24	47.12348058789294	35.85739261258958	1.752561685744666	0.9972334052658479
0.010737444346572181	8.346350203320513e-26	1.588851905146113e8	3.967089289810138e24	47.12348058789294	35.85739261258958	1.752561685744666	0.9972334052658479
0.010779972276441525	8.874894914965582e-26	1.588851905146113e8	3.967089289810138e24	47.12348058789294	35.85739261258958	1.752561685744666	0.9972334052658479
0.010822668647213618	9.407915587321223e-26	1.588851905146113e8	3.967089289810138e24	47.12348058789294	35.85739261258958	1.752561685744666	0.9972334052658479
0.010865534126034452	9.943414440194124e-26	1.588851905146113e8	3.967089289810138e24	47.12348058789294	35.85739261258958	1.752561685744666	0.9972334052658479
0.01090856938269238	1.0479345514330577e-25	1.588851905146113e8	3.967089289810138e24	47.12348058789294	35.85739261258958	1.752561685744666	0.9972334052658479
0.010951775089628604	1.1013613871481555e-25	1.588851905146113e8	3.967089289810138e24	47.12348058789294	35.85739261258958	1.752561685744666	0.9972334052658479
0.010995151921947667	1.1544074783010906e-25	1.588851905146113e8	3.967089289810138e24	47.12348058789294	35.85739261258958	1.752561685744666	0.9972334052658479
0.011038700557428014	1.2080738631940156e-25	1.588851905146113e8	3.967089289810138e24	47.12348058789294	35.85739261258958	1.752561685744666	0.9972334052658479
0.011082421676532565	1.2636006208077944e-25	1.588851905146113e8	3.967089289810138e24	47.12348058789294	35.85739261258958	1.752561685744666	0.9972334052658479
0.01112631596241937	1.3208926512800528e-25	1.588851905146113e8	3.967089289810138e24	47.12348058789294	35.85739261258958	1.752561685744666	0.9972334052658479
0.011170384100952257	1.379851000664333e-25	1.588851905146113e8	3.967089289810138e24	47.12348058789294	35.85739261258958	1.752561685744666	0.9972334052658479
0.011214626780711579	1.4403740720100238e-25	1.588851905146113e8	3.967089289810138e24	47.12348058789294	35.85739261258958	1.752561685744666	0.9972334052658479
0.011259044693004948	1.5023575802047928e-25	1.588851905146113e8	3.967089289810138e24	47.12348058789294	35.85739261258958	1.752561685744666	0.9972334052658479
0.011303638531878048	1.5656945061621812e-25	1.588851905146113e8	3.967089289810138e24	47.12348058789294	35.85739261258958	1.752561685744666	0.9972334052658479
0.01134840899412548	1.6302750503455463e-25	1.588851905146113e8	3.967089289810138e24	47.12348058789294	35.85739261258958	1.752561685744666	0.9972334052658479
0.011393356779301651	1.6959865856195142e-25	1.588851905146113e8	3.967089289810138e24	47.12348058789294	35.85739261258958	1.752561685744666	0.9972334052658479
0.011438482589731694	1.7627136094198988e-25	1.588851905146113e8	3.967089289810138e24	47.12348058789294	35.85739261258958	1.752561685744666	0.9972334052658479
0.011483787130522456	1.8303376952330484e-25	1.588851905146113e8	3.967089289810138e24	47.12348058789294	35.85739261258958	1.752561685744666	0.9972334052658479
0.011529271109573509	1.8987374433753305e-25	1.588851905146113e8	3.967089289810138e24	47.12348058789294	35.85739261258958	1.752561685744666	0.9972334052658479
0.011574935237588208	1.96778843106344e-25	1.588851905146113e8	3.967089289810138e24	47.12348058789294	35.85739261258958	1.752561685744666	0.9972334052658479
0.011620780228084805	2.037363161766114e-25	1.588851905146113e8	3.967089289810138e24	47.12348058789294	35.85739261258958	1.752561685744666	0.9972334052658479
0.01166680679740759	2.107331013827566e-25	1.588851905146113e8	3.967089289810138e24	47.12348058789294	35.85739261258958	1.752561685744666	0.9972334052658479
0.011713015664738086	2.177558188353041e-25	1.588851905146113e8	3.967089289810138e24	47.12348058789294	35.85739261258958	1.752561685744666	0.9972334052658479
0.011759407552106287	2.247907656346621e-25	1.588851905146113e8	3.967089289810138e24	47.12348058789294	35.85739261258958	1.752561685744666	0.9972334052658479
0.011805983184401942	2.3182391050913097e-25	1.588851905146113e8	3.967089289810138e24	47.12348058789294	35.85739261258958	1.752561685744666	0.9972334052658479
0.01185274328938583	2.388408883761264e-25	1.588851905146113e8	3.967089289810138e24	47.12348058789294	35.85739261258958	1.752561685744666	0.9972334052658479
0.011899688597701328	2.458269948256415e-25	1.588851905146113e8	3.967089289810138e24	47.12348058789294	35.85739261258958	1.752561685744666	0.9972334052658479
0.011946819842885537	2.5276718052480067e-25	1.588851905146113e8	3.967089289810138e24	47.12348058789294	35.85739261258958	1.752561685744666	0.9972334052658479
0.01199413776138093	2.5964613582104715e-25	1.588851905146113e8	3.967089289810138e24	47.12348058789294	35.85739261258958	1.752561685744666	0.9972334052658479
0.012041643092546822	2.6662068957823357e-25	1.588851905146113e8	3.967089289810138e24	47.12348058789294	35.85739261258958	1.752561685744666	0.9972334052658479
0.01208933657867092	2.738339091177321e-25	1.588851905146113e8	3.967089289810138e24	47.12348058789294	35.85739261258958	1.752561685744666	0.9972334052658479
0.012137218964980911	2.8127193623863384e-25	1.588851905146113e8	3.967089289810138e24	47.12348058789294	35.85739261258958	1.752561685744666	0.9972334052658479
0.012185290999656123	2.889205437778321e-25	1.588851905146113e8	3.967089289810138e24	47.12348058789294	35.85739261258958	1.752561685744666	0.9972334052658479
0.012233553433839204	2.9676512931081303e-25	1.588851905146113e8	3.967089289810138e24	47.12348058789294	35.85739261258958	1.752561685744666	0.9972334052658479
0.012282007021647858	3.0479070876112316e-25	1.588851905146113e8	3.967089289810138e24	47.12348058789294	35.85739261258958	1.752561685744666	0.9972334052658479
0.01233065252018664	3.1298190991729355e-25	1.588851905146113e8	3.967089289810138e24	47.12348058789294	35.85739261258958	1.752561685744666	0.9972334052658479
0.012379490689558773	3.213229658559799e-25	1.588851905146113e8	3.967089289810138e24	47.12348058789294	35.85739261258958	1.752561685744666	0.9972334052658479
0.012428522292878032	3.2979770827006747e-25	1.588851905146113e8	3.967089289810138e24	47.12348058789294	35.85739261258958	1.752561685744666	0.9972334052658479
0.012477748096280666	3.383895607004699e-25	1.588851905146113e8	3.967089289810138e24	47.12348058789294	35.85739261258958	1.752561685744666	0.9972334052658479
0.012527168868937372	3.470815316703373e-25	1.588851905146113e8	3.967089289810138e24	47.12348058789294	35.85739261258958	1.752561685744666	0.9972334052658479
0.012576785383065305	3.5585620772036752e-25	1.588851905146113e8	3.967089289810138e24	47.12348058789294	35.85739261258958	1.752561685744666	0.9972334052658479
0.012626598413940154	3.6469574634390593e-25	1.588851905146113e8	3.967089289810138e24	47.12348058789294	35.85739261258958	1.752561685744666	0.9972334052658479
0.012676608739908255	3.73581868820496e-25	1.588851905146113e8	3.967089289810138e24	47.12348058789294	35.85739261258958	1.752561685744666	0.9972334052658479
0.012726817142398745	3.8249585294652553e-25	1.588851905146113e8	3.967089289810138e24	47.12348058789294	35.85739261258958	1.752561685744666	0.9972334052658479
0.012777224405935778	3.9141852566160066e-25	1.588851905146113e8	3.967089289810138e24	47.12348058789294	35.85739261258958	1.752561685744666	0.9972334052658479
0.012827831318150787	4.0033025556926216e-25	1.588851905146113e8	3.967089289810138e24	47.12348058789294	35.85739261258958	1.752561685744666	0.9972334052658479
0.012878638669794778	4.0921094535062953e-25	1.588851905146113e8	3.967089289810138e24	47.12348058789294	35.85739261258958	1.752561685744666	0.9972334052658479
0.012929647254750704	4.180400240695624e-25	1.588851905146113e8	3.967089289810138e24	47.12348058789294	35.85739261258958	1.752561685744666	0.9972334052658479
0.012980857870045853	4.267964393678852e-25	1.588851905146113e8	3.967089289810138e24	47.12348058789294	35.85739261258958	1.752561685744666	0.9972334052658479
0.013032271315864315	4.355393424727997e-25	1.588851905146113e8	3.967089289810138e24	47.12348058789294	35.85739261258958	1.752561685744666	0.9972334052658479
0.013083888395559472	4.444095699954842e-25	1.588851905146113e8	3.967089289810138e24	47.12348058789294	35.85739261258958	1.752561685744666	0.9972334052658479
0.013135709915666566	4.534116352542934e-25	1.588851905146113e8	3.967089289810138e24	47.12348058789294	35.85739261258958	1.752561685744666	0.9972334052658479
0.013187736685915283	4.625468279815333e-25	1.588851905146113e8	3.967089289810138e24	47.12348058789294	35.85739261258958	1.752561685744666	0.9972334052658479
0.013239969519242426	4.718164491099843e-25	1.588851905146113e8	3.967089289810138e24	47.12348058789294	35.85739261258958	1.752561685744666	0.9972334052658479
0.013292409231804601	4.812218108656242e-25	1.588851905146113e8	3.967089289810138e24	47.12348058789294	35.85739261258958	1.752561685744666	0.9972334052658479
0.013345056642990976	4.9076423686108495e-25	1.588851905146113e8	3.967089289810138e24	47.12348058789294	35.85739261258958	1.752561685744666	0.9972334052658479
0.013397912575436086	5.004450621898856e-25	1.588851905146113e8	3.967089289810138e24	47.12348058789294	35.85739261258958	1.752561685744666	0.9972334052658479
0.013450977855032681	5.102656335214201e-25	1.588851905146113e8	3.967089289810138e24	47.12348058789294	35.85739261258958	1.752561685744666	0.9972334052658479
0.01350425331094464	5.2022730919670825e-25	1.588851905146113e8	3.967089289810138e24	47.12348058789294	35.85739261258958	1.752561685744666	0.9972334052658479
0.01355773977561992	5.303314593249317e-25	1.588851905146113e8	3.967089289810138e24	47.12348058789294	35.85739261258958	1.752561685744666	0.9972334052658479
0.013611438084803562	5.405794658807492e-25	1.588851905146113e8	3.967089289810138e24	47.12348058789294	35.85739261258958	1.752561685744666	0.9972334052658479
0.013665349077550754	5.509727228023936e-25	1.588851905146113e8	3.967089289810138e24	47.12348058789294	35.85739261258958	1.752561685744666	0.9972334052658479
0.013719473596239944	5.61512636090574e-25	1.588851905146113e8	3.967089289810138e24	47.12348058789294	35.85739261258958	1.752561685744666	0.9972334052658479
0.013773812486585995	5.722006239081672e-25	1.588851905146113e8	3.967089289810138e24	47.12348058789294	35.85739261258958	1.752561685744666	0.9972334052658479
0.013828366597653404	5.830381166807236e-25	1.588851905146113e8	3.967089289810138e24	47.12348058789294	35.85739261258958	1.752561685744666	0.9972334052658479
0.01388313678186957	5.940265571977816e-25	1.588851905146113e8	3.967089289810138e24	47.12348058789294	35.85739261258958	1.752561685744666	0.9972334052658479
0.013938123895038108	6.051674007150086e-25	1.588851905146113e8	3.967089289810138e24	47.12348058789294	35.85739261258958	1.752561685744666	0.9972334052658479
0.01399332879635223	6.164621150571616e-25	1.588851905146113e8	3.967089289810138e24	47.12348058789294	35.85739261258958	1.752561685744666	0.9972334052658479
0.014048752348408165	6.279121807218821e-25	1.588851905146113e8	3.967089289810138e24	47.12348058789294	35.85739261258958	1.752561685744666	0.9972334052658479
0.014104395417218632	6.395190909843378e-25	1.588851905146113e8	3.967089289810138e24	47.12348058789294	35.85739261258958	1.752561685744666	0.9972334052658479
0.014160258872226385	6.512843520026993e-25	1.588851905146113e8	3.967089289810138e24	47.12348058789294	35.85739261258958	1.752561685744666	0.9972334052658479
0.014216343586317782	6.632094829244795e-25	1.588851905146113e8	3.967089289810138e24	47.12348058789294	35.85739261258958	1.752561685744666	0.9972334052658479
0.014272650435836441	6.752960159937315e-25	1.588851905146113e8	3.967089289810138e24	47.12348058789294	35.85739261258958	1.752561685744666	0.9972334052658479
0.014329180300596921	6.875454966591082e-25	1.588851905146113e8	3.967089289810138e24	47.12348058789294	35.85739261258958	1.752561685744666	0.9972334052658479
0.014385934063898476	6.999594836828036e-25	1.588851905146113e8	3.967089289810138e24	47.12348058789294	35.85739261258958	1.752561685744666	0.9972334052658479
0.01444291261253885	7.1253954925036695e-25	1.588851905146113e8	3.967089289810138e24	47.12348058789294	35.85739261258958	1.752561685744666	0.9972334052658479
0.014500116836828142	7.25287279081414e-25	1.588851905146113e8	3.967089289810138e24	47.12348058789294	35.85739261258958	1.752561685744666	0.9972334052658479
0.014557547630602713	7.3820427254122595e-25	1.588851905146113e8	3.967089289810138e24	47.12348058789294	35.85739261258958	1.752561685744666	0.9972334052658479
0.014615205891239151	7.512921427532542e-25	1.588851905146113e8	3.967089289810138e24	47.12348058789294	35.85739261258958	1.752561685744666	0.9972334052658479
0.014673092519668295	7.645525167125328e-25	1.588851905146113e8	3.967089289810138e24	47.12348058789294	35.85739261258958	1.752561685744666	0.9972334052658479
0.014731208420389314	7.779870354000119e-25	1.588851905146113e8	3.967089289810138e24	47.12348058789294	35.85739261258958	1.752561685744666	0.9972334052658479
0.014789554501483834	7.915973538978078e-25	1.588851905146113e8	3.967089289810138e24	47.12348058789294	35.85739261258958	1.752561685744666	0.9972334052658479
0.014848131674630135	8.053851415053963e-25	1.588851905146113e8	3.967089289810138e24	47.12348058789294	35.85739261258958	1.752561685744666	0.9972334052658479
0.014906940855117392	8.193520818567308e-25	1.588851905146113e8	3.967089289810138e24	47.12348058789294	35.85739261258958	1.752561685744666	0.9972334052658479
0.014965982961859981	8.334998730383188e-25	1.588851905146113e8	3.967089289810138e24	47.12348058789294	35.85739261258958	1.752561685744666	0.9972334052658479
0.01502525891741182	8.478302277082453e-25	1.588851905146113e8	3.967089289810138e24	47.12348058789294	35.85739261258958	1.752561685744666	0.9972334052658479
0.015084769647980816	8.62344873216165e-25	1.588851905146113e8	3.967089289810138e24	47.12348058789294	35.85739261258958	1.752561685744666	0.9972334052658479
0.015144516083443301	8.770455517242523e-25	1.588851905146113e8	3.967089289810138e24	47.12348058789294	35.85739261258958	1.752561685744666	0.9972334052658479
0.015204499157358598	8.919340203291467e-25	1.588851905146113e8	3.967089289810138e24	47.12348058789294	35.85739261258958	1.752561685744666	0.9972334052658479
0.01526471980698358	9.070120511848637e-25	1.588851905146113e8	3.967089289810138e24	47.12348058789294	35.85739261258958	1.752561685744666	0.9972334052658479
0.01532517897328732	9.222814316267095e-25	1.588851905146113e8	3.967089289810138e24	47.12348058789294	35.85739261258958	1.752561685744666	0.9972334052658479
0.015385877600965813	9.377439642961992e-25	1.588851905146113e8	3.967089289810138e24	47.12348058789294	35.85739261258958	1.752561685744666	0.9972334052658479
0.015446816638456708	9.534014672669744e-25	1.588851905146113e8	3.967089289810138e24	47.12348058789294	35.85739261258958	1.752561685744666	0.9972334052658479
0.015507997037954158	9.692557741717463e-25	1.588851905146113e8	3.967089289810138e24	47.12348058789294	35.85739261258958	1.752561685744666	0.9972334052658479
0.015569419755423669	9.853087343302578e-25	1.588851905146113e8	3.967089289810138e24	47.12348058789294	35.85739261258958	1.752561685744666	0.9972334052658479
0.01563108575061706	1.0015622128782862e-24	1.588851905146113e8	3.967089289810138e24	47.12348058789294	35.85739261258958	1.752561685744666	0.9972334052658479
0.01569299598708745	1.0180180908976778e-24	1.588851905146113e8	3.967089289810138e24	47.12348058789294	35.85739261258958	1.752561685744666	0.9972334052658479
0.015755151432204316	1.0346782655474431e-24	1.588851905146113e8	3.967089289810138e24	47.12348058789294	35.85739261258958	1.752561685744666	0.9972334052658479
0.0158175530571686	1.0515446501959007e-24	1.588851905146113e8	3.967089289810138e24	47.12348058789294	35.85739261258958	1.752561685744666	0.9972334052658479
0.0158802018370279	1.0686191745538946e-24	1.588851905146113e8	3.967089289810138e24	47.12348058789294	35.85739261258958	1.752561685744666	0.9972334052658479
0.015943098750691692	1.0859037848090876e-24	1.588851905146113e8	3.967089289810138e24	47.12348058789294	35.85739261258958	1.752561685744666	0.9972334052658479
0.01600624478094664	1.1034004437613312e-24	1.588851905146113e8	3.967089289810138e24	47.12348058789294	35.85739261258958	1.752561685744666	0.9972334052658479
0.01606964091447193	1.1211111309591341e-24	1.588851905146113e8	3.967089289810138e24	47.12348058789294	35.85739261258958	1.752561685744666	0.9972334052658479
0.016133288141854704	1.139037842837234e-24	1.588851905146113e8	3.967089289810138e24	47.12348058789294	35.85739261258958	1.752561685744666	0.9972334052658479
0.016197187457605546	1.1571825928552726e-24	1.588851905146113e8	3.967089289810138e24	47.12348058789294	35.85739261258958	1.752561685744666	0.9972334052658479
0.016261339860174	1.1755474116376e-24	1.588851905146113e8	3.967089289810138e24	47.12348058789294	35.85739261258958	1.752561685744666	0.9972334052658479
0.016325746351964186	1.194134347114192e-24	1.588851905146113e8	3.967089289810138e24	47.12348058789294	35.85739261258958	1.752561685744666	0.9972334052658479
0.016390407939350447	1.2129454646627181e-24	1.588851905146113e8	3.967089289810138e24	47.12348058789294	35.85739261258958	1.752561685744666	0.9972334052658479
