r[m]	M[Msun]	rho[g/cm^3]	P[N/m^2]	n_e[pm^-3]	n_p[pm^-3]	muF_e[MeV]	B
0.009999999999999983	-2.4608387299956698e-39	2.3590448424220133e8	6.786719783732611e24	69.94414250749243	53.2328208295675	2.055770383480964	0.9967925823905543
0.010039420323115434	5.9662678349672946e-27	2.3590448424220133e8	6.786719783732611e24	69.94414250749243	53.2328208295675	2.055770383480964	0.9967925823905543
0.010078996042418336	1.2123268339661676e-26	2.3590448424220133e8	6.786719783732611e24	69.94414250749243	53.2328208295675	2.055770383480964	0.9967925823905543
0.010118727770485482	1.8449198967217854e-26	2.3590448424220133e8	6.786719783732611e24	69.94414250749243	53.2328208295675	2.055770383480964	0.9967925823905543
0.010158616122308464	2.4921709586824117e-26	2.3590448424220133e8	6.786719783732611e24	69.94414250749243	53.2328208295675	2.055770383480964	0.9967925823905543
0.010198661715303184	3.151789331283386e-26	2.3590448424220133e8	6.786719783732611e24	69.94414250749243	53.2328208295675	2.055770383480964	0.9967925823905543
0.010238865169319428	3.8214277202381187e-26	2.3590448424220133e8	6.786719783732611e24	69.94414250749243	53.2328208295675	2.055770383480964	0.9967925823905543
0.010279227106650479	4.4986812819743503e-26	2.3590448424220133e8	6.786719783732611e24	69.94414250749243	53.2328208295675	2.055770383480964	0.9967925823905543
0.010319748152042604	5.181086666566123e-26	2.3590448424220133e8	6.786719783732611e24	69.94414250749243	53.2328208295675	2.055770383480964	0.9967925823905543
0.010360428932704963	5.866121046990927e-26	2.3590448424220133e8	6.786719783732611e24	69.94414250749243	53.2328208295675	2.055770383480964	0.9967925823905543
0.010401270078319152	6.551201134518024e-26	2.3590448424220133e8	6.786719783732611e24	69.94414250749243	53.2328208295675	2.055770383480964	0.9967925823905543
0.010442272221048992	7.233682180053974e-26	2.3590448424220133e8	6.786719783732611e24	69.94414250749243	53.2328208295675	2.055770383480964	0.9967925823905543
0.010483435995550315	7.911110482536238e-26	2.3590448424220133e8	6.786719783732611e24	69.94414250749243	53.2328208295675	2.055770383480964	0.9967925823905543
0.010524762038980789	8.600347044044208e-26	2.3590448424220133e8	6.786719783732611e24	69.94414250749243	53.2328208295675	2.055770383480964	0.9967925823905543
0.010566250991009773	9.311047915806827e-26	2.3590448424220133e8	6.786719783732611e24	69.94414250749243	53.2328208295675	2.055770383480964	0.9967925823905543
0.010607903493828227	1.0040566511567071e-25	2.3590448424220133e8	6.786719783732611e24	69.94414250749243	53.2328208295675	2.055770383480964	0.9967925823905543
0.01064972019215865	1.0786190051510835e-25	2.3590448424220133e8	6.786719783732611e24	69.94414250749243	53.2328208295675	2.055770383480964	0.9967925823905543
0.010691701733265052	1.1545138454969096e-25	2.3590448424220133e8	6.786719783732611e24	69.94414250749243	53.2328208295675	2.055770383480964	0.9967925823905543
0.010733848766962983	1.2314563217250547e-25	2.3590448424220133e8	6.786719783732611e24	69.94414250749243	53.2328208295675	2.055770383480964	0.9967925823905543
0.010776161945629635	1.309154627039451e-25	2.3590448424220133e8	6.786719783732611e24	69.94414250749243	53.2328208295675	2.055770383480964	0.9967925823905543
0.010818641924213748	1.3873098827625908e-25	2.3590448424220133e8	6.786719783732611e24	69.94414250749243	53.2328208295675	2.055770383480964	0.9967925823905543
0.010861289360246032	1.4656160211308792e-25	2.3590448424220133e8	6.786719783732611e24	69.94414250749243	53.2328208295675	2.055770383480964	0.9967925823905543
0.010904104913849163	1.543759666416309e-25	2.3590448424220133e8	6.786719783732611e24	69.94414250749243	53.2328208295675	2.055770383480964	0.9967925823905543
0.010947089247748032	1.6214200143534996e-25	2.3590448424220133e8	6.786719783732611e24	69.94414250749243	53.2328208295675	2.055770383480964	0.9967925823905543
0.01099024302728002	1.6994201068290288e-25	2.3590448424220133e8	6.786719783732611e24	69.94414250749243	53.2328208295675	2.055770383480964	0.9967925823905543
0.011033566920405292	1.7800574880184153e-25	2.3590448424220133e8	6.786719783732611e24	69.94414250749243	53.2328208295675	2.055770383480964	0.9967925823905543
0.011077061597717123	1.8632756601808646e-25	2.3590448424220133e8	6.786719783732611e24	69.94414250749243	53.2328208295675	2.055770383480964	0.9967925823905543
0.011120727732452297	1.9489257005709756e-25	2.3590448424220133e8	6.786719783732611e24	69.94414250749243	53.2328208295675	2.055770383480964	0.9967925823905543
0.01116456600050152	2.0368547414328104e-25	2.3590448424220133e8	6.786719783732611e24	69.94414250749243	53.2328208295675	2.055770383480964	0.9967925823905543
0.011208577080419873	2.1269059029754987e-25	2.3590448424220133e8	6.786719783732611e24	69.94414250749243	53.2328208295675	2.055770383480964	0.9967925823905543
0.01125276165343733	2.218918225381858e-25	2.3590448424220133e8	6.786719783732611e24	69.94414250749243	53.2328208295675	2.055770383480964	0.9967925823905543
0.011297120403469293	2.31272659983707e-25	2.3590448424220133e8	6.786719783732611e24	69.94414250749243	53.2328208295675	2.055770383480964	0.9967925823905543
0.011341654017127232	2.408161698564574e-25	2.3590448424220133e8	6.786719783732611e24	69.94414250749243	53.2328208295675	2.055770383480964	0.9967925823905543
0.01138636318372911	2.505049903855235e-25	2.3590448424220133e8	6.786719783732611e24	69.94414250749243	53.2328208295675	2.055770383480964	0.9967925823905543
0.011431248595310356	2.603213236078084e-25	2.3590448424220133e8	6.786719783732611e24	69.94414250749243	53.2328208295675	2.055770383480964	0.9967925823905543
0.011476310946634373	2.702469280656879e-25	2.3590448424220133e8	6.786719783732611e24	69.94414250749243	53.2328208295675	2.055770383480964	0.9967925823905543
0.011521550935203344	2.802631114000451e-25	2.3590448424220133e8	6.786719783732611e24	69.94414250749243	53.2328208295675	2.055770383480964	0.9967925823905543
0.011566969261269027	2.9035072283721837e-25	2.3590448424220133e8	6.786719783732611e24	69.94414250749243	53.2328208295675	2.055770383480964	0.9967925823905543
0.011612566627843596	3.004901455684779e-25	2.3590448424220133e8	6.786719783732611e24	69.94414250749243	53.2328208295675	2.055770383480964	0.9967925823905543
0.011658343740710526	3.1066128902059847e-25	2.3590448424220133e8	6.786719783732611e24	69.94414250749243	53.2328208295675	2.055770383480964	0.9967925823905543
0.011704301308435505	3.20843581016084e-25	2.3590448424220133e8	6.786719783732611e24	69.94414250749243	53.2328208295675	2.055770383480964	0.9967925823905543
0.011750440042377415	3.3101595982158833e-25	2.3590448424220133e8	6.786719783732611e24	69.94414250749243	53.2328208295675	2.055770383480964	0.9967925823905543
0.011796760656699339	3.4115686608304813e-25	2.3590448424220133e8	6.786719783732611e24	69.94414250749243	53.2328208295675	2.055770383480964	0.9967925823905543
0.011843263868379611	3.5124423464602772e-25	2.3590448424220133e8	6.786719783732611e24	69.94414250749243	53.2328208295675	2.055770383480964	0.9967925823905543
0.011889950397222964	3.6125548625977e-25	2.3590448424220133e8	6.786719783732611e24	69.94414250749243	53.2328208295675	2.055770383480964	0.9967925823905543
0.011936820965871486	3.7122866252962073e-25	2.3590448424220133e8	6.786719783732611e24	69.94414250749243	53.2328208295675	2.055770383480964	0.9967925823905543
0.011983876299816077	3.814977375940942e-25	2.3590448424220133e8	6.786719783732611e24	69.94414250749243	53.2328208295675	2.055770383480964	0.9967925823905543
0.01203111712740751	3.9209977067486517e-25	2.3590448424220133e8	6.786719783732611e24	69.94414250749243	53.2328208295675	2.055770383480964	0.9967925823905543
0.012078544179867734	4.0301381287041007e-25	2.3590448424220133e8	6.786719783732611e24	69.94414250749243	53.2328208295675	2.055770383480964	0.9967925823905543
0.012126158191301195	4.142183651049346e-25	2.3590448424220133e8	6.786719783732611e24	69.94414250749243	53.2328208295675	2.055770383480964	0.9967925823905543
0.01217395989870621	4.256913688020469e-25	2.3590448424220133e8	6.786719783732611e24	69.94414250749243	53.2328208295675	2.055770383480964	0.9967925823905543
0.012221950041986365	4.374101964239991e-25	2.3590448424220133e8	6.786719783732611e24	69.94414250749243	53.2328208295675	2.055770383480964	0.9967925823905543
0.012270129363961962	4.493516418747103e-25	2.3590448424220133e8	6.786719783732611e24	69.94414250749243	53.2328208295675	2.055770383480964	0.9967925823905543
0.012318498610381536	4.614919107647563e-25	2.3590448424220133e8	6.786719783732611e24	69.94414250749243	53.2328208295675	2.055770383480964	0.9967925823905543
0.012367058529933384	4.738066105364943e-25	2.3590448424220133e8	6.786719783732611e24	69.94414250749243	53.2328208295675	2.055770383480964	0.9967925823905543
0.012415809874257147	4.862707404474513e-25	2.3590448424220133e8	6.786719783732611e24	69.94414250749243	53.2328208295675	2.055770383480964	0.9967925823905543
0.012464753397955521	4.988586814101309e-25	2.3590448424220133e8	6.786719783732611e24	69.94414250749243	53.2328208295675	2.055770383480964	0.9967925823905543
0.0125138898586057	5.115441856862211e-25	2.3590448424220133e8	6.786719783732611e24	69.94414250749243	53.2328208295675	2.055770383480964	0.9967925823905543
0.01256322001677144	5.243003664335024e-25	2.3590448424220133e8	6.786719783732611e24	69.94414250749243	53.2328208295675	2.055770383480964	0.9967925823905543
0.0126127446360146	5.370996871032093e-25	2.3590448424220133e8	6.786719783732611e24	69.94414250749243	53.2328208295675	2.055770383480964	0.9967925823905543
0.012662464482907037	5.49913950686083e-25	2.3590448424220133e8	6.786719783732611e24	69.94414250749243	53.2328208295675	2.055770383480964	0.9967925823905543
0.012712380327042446	5.627142888050169e-25	2.3590448424220133e8	6.786719783732611e24	69.94414250749243	53.2328208295675	2.055770383480964	0.9967925823905543
0.012762492941048297	5.754711506522901e-25	2.3590448424220133e8	6.786719783732611e24	69.94414250749243	53.2328208295675	2.055770383480964	0.9967925823905543
0.012812803100597774	5.881542917693151e-25	2.3590448424220133e8	6.786719783732611e24	69.94414250749243	53.2328208295675	2.055770383480964	0.9967925823905543
0.012863311584421794	6.007327626668373e-25	2.3590448424220133e8	6.786719783732611e24	69.94414250749243	53.2328208295675	2.055770383480964	0.9967925823905543
0.012914019174321056	6.13303524534291e-25	2.3590448424220133e8	6.786719783732611e24	69.94414250749243	53.2328208295675	2.055770383480964	0.9967925823905543
0.01296492665517814	6.2605749720136635e-25	2.3590448424220133e8	6.786719783732611e24	69.94414250749243	53.2328208295675	2.055770383480964	0.9967925823905543
0.013016034814969664	6.389989178692649e-25	2.3590448424220133e8	6.786719783732611e24	69.94414250749243	53.2328208295675	2.055770383480964	0.9967925823905543
0.013067344444778469	6.521296090640628e-25	2.3590448424220133e8	6.786719783732611e24	69.94414250749243	53.2328208295675	2.055770383480964	0.9967925823905543
0.013118856338805928	6.654514090563145e-25	2.3590448424220133e8	6.786719783732611e24	69.94414250749243	53.2328208295675	2.055770383480964	0.9967925823905543
0.013170571294384016	6.789661719906887e-25	2.3590448424220133e8	6.786719783732611e24	69.94414250749243	53.2328208295675	2.055770383480964	0.9967925823905543
0.013222490111987987	6.926757680167794e-25	2.3590448424220133e8	6.786719783732611e24	69.94414250749243	53.2328208295675	2.055770383480964	0.9967925823905543
0.013274613595248525	7.065820834208373e-25	2.3590448424220133e8	6.786719783732611e24	69.94414250749243	53.2328208295675	2.055770383480964	0.9967925823905543
0.013326942550964272	7.206870207586315e-25	2.3590448424220133e8	6.786719783732611e24	69.94414250749243	53.2328208295675	2.055770383480964	0.9967925823905543
0.013379477789114276	7.349924989893639e-25	2.3590448424220133e8	6.786719783732611e24	69.94414250749243	53.2328208295675	2.055770383480964	0.9967925823905543
0.013432220122870563	7.495004536106711e-25	2.3590448424220133e8	6.786719783732611e24	69.94414250749243	53.2328208295675	2.055770383480964	0.9967925823905543
0.013485170368610702	7.642128367947025e-25	2.3590448424220133e8	6.786719783732611e24	69.94414250749243	53.2328208295675	2.055770383480964	0.9967925823905543
0.013538329345930456	7.791316175253125e-25	2.3590448424220133e8	6.786719783732611e24	69.94414250749243	53.2328208295675	2.055770383480964	0.9967925823905543
0.013591697877656453	7.942587817363319e-25	2.3590448424220133e8	6.786719783732611e24	69.94414250749243	53.2328208295675	2.055770383480964	0.9967925823905543
0.013645276789858928	8.095963324509807e-25	2.3590448424220133e8	6.786719783732611e24	69.94414250749243	53.2328208295675	2.055770383480964	0.9967925823905543
0.01369906691186453	8.251462899223897e-25	2.3590448424220133e8	6.786719783732611e24	69.94414250749243	53.2328208295675	2.055770383480964	0.9967925823905543
0.013753069076269171	8.409106917752623e-25	2.3590448424220133e8	6.786719783732611e24	69.94414250749243	53.2328208295675	2.055770383480964	0.9967925823905543
0.013807284118950736	8.568915931486195e-25	2.3590448424220133e8	6.786719783732611e24	69.94414250749243	53.2328208295675	2.055770383480964	0.9967925823905543
0.01386171287908232	8.73091066839832e-25	2.3590448424220133e8	6.786719783732611e24	69.94414250749243	53.2328208295675	2.055770383480964	0.9967925823905543
0.013916356199145021	8.895112034496659e-25	2.3590448424220133e8	6.786719783732611e24	69.94414250749243	53.2328208295675	2.055770383480964	0.9967925823905543
0.01397121492494102	9.061541115285723e-25	2.3590448424220133e8	6.786719783732611e24	69.94414250749243	53.2328208295675	2.055770383480964	0.9967925823905543
0.014026289905606677	9.230219177241394e-25	2.3590448424220133e8	6.786719783732611e24	69.94414250749243	53.2328208295675	2.055770383480964	0.9967925823905543
0.014081581993625676	9.401167669297264e-25	2.3590448424220133e8	6.786719783732611e24	69.94414250749243	53.2328208295675	2.055770383480964	0.9967925823905543
0.014137092044842219	9.574408224343024e-25	2.3590448424220133e8	6.786719783732611e24	69.94414250749243	53.2328208295675	2.055770383480964	0.9967925823905543
0.014192820918474272	9.749962660734868e-25	2.3590448424220133e8	6.786719783732611e24	69.94414250749243	53.2328208295675	2.055770383480964	0.9967925823905543
0.01424876947712687	9.927852983818058e-25	2.3590448424220133e8	6.786719783732611e24	69.94414250749243	53.2328208295675	2.055770383480964	0.9967925823905543
0.01430493858680546	1.0108101387461742e-24	2.3590448424220133e8	6.786719783732611e24	69.94414250749243	53.2328208295675	2.055770383480964	0.9967925823905543
0.014361329116929313	1.029073025560612e-24	2.3590448424220133e8	6.786719783732611e24	69.94414250749243	53.2328208295675	2.055770383480964	0.9967925823905543
0.014417941940344983	1.0475762163822143e-24	2.3590448424220133e8	6.786719783732611e24	69.94414250749243	53.2328208295675	2.055770383480964	0.9967925823905543
0.014474777933339858	1.0663219880883695e-24	2.3590448424220133e8	6.786719783732611e24	69.94414250749243	53.2328208295675	2.055770383480964	0.9967925823905543
0.014531837975655522	1.0853126370351905e-24	2.3590448424220133e8	6.786719783732611e24	69.94414250749243	53.2328208295675	2.055770383480964	0.9967925823905543
0.014589122950501694	1.1045504792173668e-24	2.3590448424220133e8	6.786719783732611e24	69.94414250749243	53.2328208295675	2.055770383480964	0.9967925823905543
0.014646633744569676	1.1240378504291348e-24	2.3590448424220133e8	6.786719783732611e24	69.94414250749243	53.2328208295675	2.055770383480964	0.9967925823905543
0.014704371248046135	1.1437771064266435e-24	2.3590448424220133e8	6.786719783732611e24	69.94414250749243	53.2328208295675	2.055770383480964	0.9967925823905543
0.014762336354626884	1.163770623091589e-24	2.3590448424220133e8	6.786719783732611e24	69.94414250749243	53.2328208295675	2.055770383480964	0.9967925823905543
0.014820529961530717	1.1840207965961778e-24	2.3590448424220133e8	6.786719783732611e24	69.94414250749243	53.2328208295675	2.055770383480964	0.9967925823905543
0.014878952969513292	1.2045300435694163e-24	2.3590448424220133e8	6.786719783732611e24	69.94414250749243	53.2328208295675	2.055770383480964	0.9967925823905543
0.014937606282881072	1.2253008012647322e-24	2.3590448424220133e8	6.786719783732611e24	69.94414250749243	53.2328208295675	2.055770383480964	0.9967925823905543
0.014996490809505327	1.2463355277289414e-24	2.3590448424220133e8	6.786719783732611e24	69.94414250749243	53.2328208295675	2.055770383480964	0.9967925823905543
0.015055607460836184	1.2676367019725889e-24	2.3590448424220133e8	6.786719783732611e24	69.94414250749243	53.2328208295675	2.055770383480964	0.9967925823905543
0.015114957151916738	1.289206824141641e-24	2.3590448424220133e8	6.786719783732611e24	69.94414250749243	53.2328208295675	2.055770383480964	0.9967925823905543
0.015174540801397273	1.311048415690591e-24	2.3590448424220133e8	6.786719783732611e24	69.94414250749243	53.2328208295675	2.055770383480964	0.9967925823905543
0.015234359331549239	1.3331640195568406e-24	2.3590448424220133e8	6.786719783732611e24	69.94414250749243	53.2328208295675	2.055770383480964	0.9967925823905543
0.015294413668279893	1.3555562003367088e-24	2.3590448424220133e8	6.786719783732611e24	69.94414250749243	53.2328208295675	2.055770383480964	0.9967925823905543
0.015354704741146388	1.378227544462631e-24	2.3590448424220133e8	6.786719783732611e24	69.94414250749243	53.2328208295675	2.055770383480964	0.9967925823905543
0.015415233483370221	1.4011806603818932e-24	2.3590448424220133e8	6.786719783732611e24	69.94414250749243	53.2328208295675	2.055770383480964	0.9967925823905543
0.015476000831851675	1.4244181787367769e-24	2.3590448424220133e8	6.786719783732611e24	69.94414250749243	53.2328208295675	2.055770383480964	0.9967925823905543
0.015537007727184332	1.4479427525461702e-24	2.3590448424220133e8	6.786719783732611e24	69.94414250749243	53.2328208295675	2.055770383480964	0.9967925823905543
0.015598255113669615	1.4717570573886036e-24	2.3590448424220133e8	6.786719783732611e24	69.94414250749243	53.2328208295675	2.055770383480964	0.9967925823905543
0.015659743939331425	1.495863791586794e-24	2.3590448424220133e8	6.786719783732611e24	69.94414250749243	53.2328208295675	2.055770383480964	0.9967925823905543
0.015721475155930788	1.520265676393643e-24	2.3590448424220133e8	6.786719783732611e24	69.94414250749243	53.2328208295675	2.055770383480964	0.9967925823905543
0.01578344971898062	1.5449654561797487e-24	2.3590448424220133e8	6.786719783732611e24	69.94414250749243	53.2328208295675	2.055770383480964	0.9967925823905543
0.015845668587760486	1.5699658986224093e-24	2.3590448424220133e8	6.786719783732611e24	69.94414250749243	53.2328208295675	2.055770383480964	0.9967925823905543
0.015908132725331474	1.5952697948961571e-24	2.3590448424220133e8	6.786719783732611e24	69.94414250749243	53.2328208295675	2.055770383480964	0.9967925823905543
0.01597084309855114	1.6208799598648376e-24	2.3590448424220133e8	6.786719783732611e24	69.94414250749243	53.2328208295675	2.055770383480964	0.9967925823905543
0.016033800678088243	1.6467992322751126e-24	2.3590448424220133e8	6.786719783732611e24	69.94414250749243	53.2328208295675	2.055770383480964	0.9967925823905543
0.01609700643843814	1.6730304749517714e-24	2.3590448424220133e8	6.786719783732611e24	69.94414250749243	53.2328208295675	2.055770383480964	0.9967925823905543
0.01616046135793761	1.6995765749943425e-24	2.3590448424220133e8	6.786719783732611e24	69.94414250749243	53.2328208295675	2.055770383480964	0.9967925823905543
0.016224166418780075	1.726440443975436e-24	2.3590448424220133e8	6.786719783732611e24	69.94414250749243	53.2328208295675	2.055770383480964	0.9967925823905543
0.01628812260703079	1.7536250181406308e-24	2.3590448424220133e8	6.786719783732611e24	69.94414250749243	53.2328208295675	2.055770383480964	0.9967925823905543
0.016352330912642113	1.7811332586099734e-24	2.3590448424220133e8	6.786719783732611e24	69.94414250749243	53.2328208295675	2.055770383480964	0.9967925823905543
