r[m]	M[Msun]	rho[g/cm^3]	P[N/m^2]	n_e[pm^-3]	n_p[pm^-3]	muF_e[MeV]	B
0.010000000000000009	2.151552987974356e-38	3.72531467246499e9	2.776247510886448e26	1105.2151869506524	1118.229059576719	5.82175577683854	0.9915096934229439
0.010037999508368999	9.058654233184341e-26	3.72531467246499e9	2.776247510886448e26	1105.2151869506524	1118.229059576719	5.82175577683854	0.9915096934229439
0.010076143413001656	1.8295240907172402e-25	3.72531467246499e9	2.776247510886448e26	1105.2151869506524	1118.229059576719	5.82175577683854	0.9915096934229439
0.010114432262596607	2.7578633820723226e-25	3.72531467246499e9	2.776247510886448e26	1105.2151869506524	1118.229059576719	5.82175577683854	0.9915096934229439
0.010152866607937659	3.693556353507737e-25	3.72531467246499e9	2.776247510886448e26	1105.2151869506524	1118.229059576719	5.82175577683854	0.9915096934229439
0.010191447001901416	4.648912344512952e-25	3.72531467246499e9	2.776247510886448e26	1105.2151869506524	1118.229059576719	5.82175577683854	0.9915096934229439
0.010230173999465502	5.610561827032747e-25	3.72531467246499e9	2.776247510886448e26	1105.2151869506524	1118.229059576719	5.82175577683854	0.9915096934229439
0.010269048157716435	6.572280415163324e-25	3.72531467246499e9	2.776247510886448e26	1105.2151869506524	1118.229059576719	5.82175577683854	0.9915096934229439
0.010308070035857505	7.544566272323246e-25	3.72531467246499e9	2.776247510886448e26	1105.2151869506524	1118.229059576719	5.82175577683854	0.9915096934229439
0.010347240195217116	8.52801351034396e-25	3.72531467246499e9	2.776247510886448e26	1105.2151869506524	1118.229059576719	5.82175577683854	0.9915096934229439
0.010386559199256526	9.522721396246996e-25	3.72531467246499e9	2.776247510886448e26	1105.2151869506524	1118.229059576719	5.82175577683854	0.9915096934229439
0.010426027613578283	1.0528790007176042e-24	3.72531467246499e9	2.776247510886448e26	1105.2151869506524	1118.229059576719	5.82175577683854	0.9915096934229439
0.010465646005934033	1.154632023676346e-24	3.72531467246499e9	2.776247510886448e26	1105.2151869506524	1118.229059576719	5.82175577683854	0.9915096934229439
0.01050541494623297	1.257545816184847e-24	3.72531467246499e9	2.776247510886448e26	1105.2151869506524	1118.229059576719	5.82175577683854	0.9915096934229439
0.010545335006549921	1.3616433152274938e-24	3.72531467246499e9	2.776247510886448e26	1105.2151869506524	1118.229059576719	5.82175577683854	0.9915096934229439
0.01058540676113344	1.46693582755068e-24	3.72531467246499e9	2.776247510886448e26	1105.2151869506524	1118.229059576719	5.82175577683854	0.9915096934229439
0.010625630786414368	1.5734339814155307e-24	3.72531467246499e9	2.776247510886448e26	1105.2151869506524	1118.229059576719	5.82175577683854	0.9915096934229439
0.010666007661013782	1.6811484918201247e-24	3.72531467246499e9	2.776247510886448e26	1105.2151869506524	1118.229059576719	5.82175577683854	0.9915096934229439
0.010706537965751621	1.790090161182819e-24	3.72531467246499e9	2.776247510886448e26	1105.2151869506524	1118.229059576719	5.82175577683854	0.9915096934229439
0.010747222283654915	1.9002753666214357e-24	3.72531467246499e9	2.776247510886448e26	1105.2151869506524	1118.229059576719	5.82175577683854	0.9915096934229439
0.010788061199966028	2.0117278212908422e-24	3.72531467246499e9	2.776247510886448e26	1105.2151869506524	1118.229059576719	5.82175577683854	0.9915096934229439
0.0108290553021514	2.124459307156105e-24	3.72531467246499e9	2.776247510886448e26	1105.2151869506524	1118.229059576719	5.82175577683854	0.9915096934229439
0.010870205179909635	2.2384811986737235e-24	3.72531467246499e9	2.776247510886448e26	1105.2151869506524	1118.229059576719	5.82175577683854	0.9915096934229439
0.01091151142518034	2.353804963124393e-24	3.72531467246499e9	2.776247510886448e26	1105.2151869506524	1118.229059576719	5.82175577683854	0.9915096934229439
0.010952974632152286	2.4704421613424733e-24	3.72531467246499e9	2.776247510886448e26	1105.2151869506524	1118.229059576719	5.82175577683854	0.9915096934229439
0.010994595397272267	2.5884072179576387e-24	3.72531467246499e9	2.776247510886448e26	1105.2151869506524	1118.229059576719	5.82175577683854	0.9915096934229439
0.011036374319253542	2.7077174596402653e-24	3.72531467246499e9	2.776247510886448e26	1105.2151869506524	1118.229059576719	5.82175577683854	0.9915096934229439
0.01107831199908432	2.8283884562978567e-24	3.72531467246499e9	2.776247510886448e26	1105.2151869506524	1118.229059576719	5.82175577683854	0.9915096934229439
0.011120409040036711	2.950435954284725e-24	3.72531467246499e9	2.776247510886448e26	1105.2151869506524	1118.229059576719	5.82175577683854	0.9915096934229439
0.011162666047675058	3.0738758822717737e-24	3.72531467246499e9	2.776247510886448e26	1105.2151869506524	1118.229059576719	5.82175577683854	0.9915096934229439
0.011205083629864944	3.1987243533528934e-24	3.72531467246499e9	2.776247510886448e26	1105.2151869506524	1118.229059576719	5.82175577683854	0.9915096934229439
0.011247662396781818	3.324997667174391e-24	3.72531467246499e9	2.776247510886448e26	1105.2151869506524	1118.229059576719	5.82175577683854	0.9915096934229439
0.011290402960919627	3.452712312088868e-24	3.72531467246499e9	2.776247510886448e26	1105.2151869506524	1118.229059576719	5.82175577683854	0.9915096934229439
0.011333305937099945	3.581884967335282e-24	3.72531467246499e9	2.776247510886448e26	1105.2151869506524	1118.229059576719	5.82175577683854	0.9915096934229439
0.01137637194248046	3.712532505242095e-24	3.72531467246499e9	2.776247510886448e26	1105.2151869506524	1118.229059576719	5.82175577683854	0.9915096934229439
0.01141960159656421	3.844671993457949e-24	3.72531467246499e9	2.776247510886448e26	1105.2151869506524	1118.229059576719	5.82175577683854	0.9915096934229439
0.011462995521208125	3.978320697205857e-24	3.72531467246499e9	2.776247510886448e26	1105.2151869506524	1118.229059576719	5.82175577683854	0.9915096934229439
0.01150655434063231	4.1134960815654285e-24	3.72531467246499e9	2.776247510886448e26	1105.2151869506524	1118.229059576719	5.82175577683854	0.9915096934229439
0.011550278681428865	4.250215813779993e-24	3.72531467246499e9	2.776247510886448e26	1105.2151869506524	1118.229059576719	5.82175577683854	0.9915096934229439
0.011594169172570777	4.388497765590234e-24	3.72531467246499e9	2.776247510886448e26	1105.2151869506524	1118.229059576719	5.82175577683854	0.9915096934229439
0.011638226445421283	4.528360015596219e-24	3.72531467246499e9	2.776247510886448e26	1105.2151869506524	1118.229059576719	5.82175577683854	0.9915096934229439
0.011682451133742581	4.669820851644349e-24	3.72531467246499e9	2.776247510886448e26	1105.2151869506524	1118.229059576719	5.82175577683854	0.9915096934229439
0.011726843873705275	4.812898773244105e-24	3.72531467246499e9	2.776247510886448e26	1105.2151869506524	1118.229059576719	5.82175577683854	0.9915096934229439
0.011771405303897394	4.957612494011102e-24	3.72531467246499e9	2.776247510886448e26	1105.2151869506524	1118.229059576719	5.82175577683854	0.9915096934229439
0.011816136065333415	5.103980944138174e-24	3.72531467246499e9	2.776247510886448e26	1105.2151869506524	1118.229059576719	5.82175577683854	0.9915096934229439
0.01186103680146384	5.252023272896594e-24	3.72531467246499e9	2.776247510886448e26	1105.2151869506524	1118.229059576719	5.82175577683854	0.9915096934229439
0.011906108158184051	5.4017588511636855e-24	3.72531467246499e9	2.776247510886448e26	1105.2151869506524	1118.229059576719	5.82175577683854	0.9915096934229439
0.011951350783843953	5.553207273981895e-24	3.72531467246499e9	2.776247510886448e26	1105.2151869506524	1118.229059576719	5.82175577683854	0.9915096934229439
0.011996765329257142	5.706388363145762e-24	3.72531467246499e9	2.776247510886448e26	1105.2151869506524	1118.229059576719	5.82175577683854	0.9915096934229439
0.012042352447710132	5.861322169818655e-24	3.72531467246499e9	2.776247510886448e26	1105.2151869506524	1118.229059576719	5.82175577683854	0.9915096934229439
0.01208811279497209	6.018028977181281e-24	3.72531467246499e9	2.776247510886448e26	1105.2151869506524	1118.229059576719	5.82175577683854	0.9915096934229439
0.012134047029303872	6.176529303108192e-24	3.72531467246499e9	2.776247510886448e26	1105.2151869506524	1118.229059576719	5.82175577683854	0.9915096934229439
0.012180155811467898	6.336843902877807e-24	3.72531467246499e9	2.776247510886448e26	1105.2151869506524	1118.229059576719	5.82175577683854	0.9915096934229439
0.012226439804737244	6.4989937719108685e-24	3.72531467246499e9	2.776247510886448e26	1105.2151869506524	1118.229059576719	5.82175577683854	0.9915096934229439
0.01227289967490555	6.663000148543104e-24	3.72531467246499e9	2.776247510886448e26	1105.2151869506524	1118.229059576719	5.82175577683854	0.9915096934229439
0.012319536090296433	6.82888451682793e-24	3.72531467246499e9	2.776247510886448e26	1105.2151869506524	1118.229059576719	5.82175577683854	0.9915096934229439
0.012366349721772963	6.996668609371566e-24	3.72531467246499e9	2.776247510886448e26	1105.2151869506524	1118.229059576719	5.82175577683854	0.9915096934229439
0.01241334124274765	7.166374410202426e-24	3.72531467246499e9	2.776247510886448e26	1105.2151869506524	1118.229059576719	5.82175577683854	0.9915096934229439
0.01246051132919174	7.338024157670934e-24	3.72531467246499e9	2.776247510886448e26	1105.2151869506524	1118.229059576719	5.82175577683854	0.9915096934229439
0.01250786065964529	7.511640347385414e-24	3.72531467246499e9	2.776247510886448e26	1105.2151869506524	1118.229059576719	5.82175577683854	0.9915096934229439
0.012555389915226776	7.687245735179969e-24	3.72531467246499e9	2.776247510886448e26	1105.2151869506524	1118.229059576719	5.82175577683854	0.9915096934229439
0.012603099779642735	7.864863340116446e-24	3.72531467246499e9	2.776247510886448e26	1105.2151869506524	1118.229059576719	5.82175577683854	0.9915096934229439
0.012650990939197962	8.044516447522918e-24	3.72531467246499e9	2.776247510886448e26	1105.2151869506524	1118.229059576719	5.82175577683854	0.9915096934229439
0.012699064082804967	8.226228612064244e-24	3.72531467246499e9	2.776247510886448e26	1105.2151869506524	1118.229059576719	5.82175577683854	0.9915096934229439
0.012747319901994307	8.410023660851051e-24	3.72531467246499e9	2.776247510886448e26	1105.2151869506524	1118.229059576719	5.82175577683854	0.9915096934229439
0.01279575909092411	8.595925696581394e-24	3.72531467246499e9	2.776247510886448e26	1105.2151869506524	1118.229059576719	5.82175577683854	0.9915096934229439
0.012844382346390423	8.783959100721494e-24	3.72531467246499e9	2.776247510886448e26	1105.2151869506524	1118.229059576719	5.82175577683854	0.9915096934229439
0.012893190367837093	8.974148536721221e-24	3.72531467246499e9	2.776247510886448e26	1105.2151869506524	1118.229059576719	5.82175577683854	0.9915096934229439
0.012942183857365654	9.166518953266346e-24	3.72531467246499e9	2.776247510886448e26	1105.2151869506524	1118.229059576719	5.82175577683854	0.9915096934229439
0.012991363519745803	9.361095587570484e-24	3.72531467246499e9	2.776247510886448e26	1105.2151869506524	1118.229059576719	5.82175577683854	0.9915096934229439
0.01304073006242512	9.557903968701746e-24	3.72531467246499e9	2.776247510886448e26	1105.2151869506524	1118.229059576719	5.82175577683854	0.9915096934229439
0.013090284195539604	9.756969920950753e-24	3.72531467246499e9	2.776247510886448e26	1105.2151869506524	1118.229059576719	5.82175577683854	0.9915096934229439
0.013140026631923743	9.958319567235391e-24	3.72531467246499e9	2.776247510886448e26	1105.2151869506524	1118.229059576719	5.82175577683854	0.9915096934229439
0.013189958087120597	1.0161979332544677e-23	3.72531467246499e9	2.776247510886448e26	1105.2151869506524	1118.229059576719	5.82175577683854	0.9915096934229439
0.013240079279392466	1.0367975947424452e-23	3.72531467246499e9	2.776247510886448e26	1105.2151869506524	1118.229059576719	5.82175577683854	0.9915096934229439
0.013290390929730802	1.0576336451499895e-23	3.72531467246499e9	2.776247510886448e26	1105.2151869506524	1118.229059576719	5.82175577683854	0.9915096934229439
0.013340893761866946	1.0787088197041853e-23	3.72531467246499e9	2.776247510886448e26	1105.2151869506524	1118.229059576719	5.82175577683854	0.9915096934229439
0.013391588502282387	1.1000255235293832e-23	3.72531467246499e9	2.776247510886448e26	1105.2151869506524	1118.229059576719	5.82175577683854	0.9915096934229439
0.01344247588021904	1.1215861592318867e-23	3.72531467246499e9	2.776247510886448e26	1105.2151869506524	1118.229059576719	5.82175577683854	0.9915096934229439
0.01349355662769013	1.14339351816706e-23	3.72531467246499e9	2.776247510886448e26	1105.2151869506524	1118.229059576719	5.82175577683854	0.9915096934229439
0.013544831479490262	1.1654504236446298e-23	3.72531467246499e9	2.776247510886448e26	1105.2151869506524	1118.229059576719	5.82175577683854	0.9915096934229439
0.013596301173206463	1.1877597312821925e-23	3.72531467246499e9	2.776247510886448e26	1105.2151869506524	1118.229059576719	5.82175577683854	0.9915096934229439
0.013647966449228319	1.210324329374723e-23	3.72531467246499e9	2.776247510886448e26	1105.2151869506524	1118.229059576719	5.82175577683854	0.9915096934229439
0.013699828050759033	1.233147139268685e-23	3.72531467246499e9	2.776247510886448e26	1105.2151869506524	1118.229059576719	5.82175577683854	0.9915096934229439
0.013751886723825942	1.2562311157401684e-23	3.72531467246499e9	2.776247510886448e26	1105.2151869506524	1118.229059576719	5.82175577683854	0.9915096934229439
0.013804143217291082	1.2795792473773634e-23	3.72531467246499e9	2.776247510886448e26	1105.2151869506524	1118.229059576719	5.82175577683854	0.9915096934229439
0.01385659828286236	1.3031945569676496e-23	3.72531467246499e9	2.776247510886448e26	1105.2151869506524	1118.229059576719	5.82175577683854	0.9915096934229439
0.013909252675103892	1.3270801018887414e-23	3.72531467246499e9	2.776247510886448e26	1105.2151869506524	1118.229059576719	5.82175577683854	0.9915096934229439
0.013962107151447292	1.351238974504702e-23	3.72531467246499e9	2.776247510886448e26	1105.2151869506524	1118.229059576719	5.82175577683854	0.9915096934229439
0.014015162472202365	1.375674302566212e-23	3.72531467246499e9	2.776247510886448e26	1105.2151869506524	1118.229059576719	5.82175577683854	0.9915096934229439
0.014068419400567887	1.4003892496154325e-23	3.72531467246499e9	2.776247510886448e26	1105.2151869506524	1118.229059576719	5.82175577683854	0.9915096934229439
0.014121878702642976	1.4253870153957586e-23	3.72531467246499e9	2.776247510886448e26	1105.2151869506524	1118.229059576719	5.82175577683854	0.9915096934229439
0.014175541147437671	1.4506708362658688e-23	3.72531467246499e9	2.776247510886448e26	1105.2151869506524	1118.229059576719	5.82175577683854	0.9915096934229439
0.014229407506884428	1.4762439856189308e-23	3.72531467246499e9	2.776247510886448e26	1105.2151869506524	1118.229059576719	5.82175577683854	0.9915096934229439
0.014283478555848791	1.5021097743061856e-23	3.72531467246499e9	2.776247510886448e26	1105.2151869506524	1118.229059576719	5.82175577683854	0.9915096934229439
0.014337755072140915	1.5282715510657715e-23	3.72531467246499e9	2.776247510886448e26	1105.2151869506524	1118.229059576719	5.82175577683854	0.9915096934229439
0.014392237836526609	1.5547327029562015e-23	3.72531467246499e9	2.776247510886448e26	1105.2151869506524	1118.229059576719	5.82175577683854	0.9915096934229439
0.014446927632738367	1.5814966557947763e-23	3.72531467246499e9	2.776247510886448e26	1105.2151869506524	1118.229059576719	5.82175577683854	0.9915096934229439
0.01450182524748707	1.608566874601315e-23	3.72531467246499e9	2.776247510886448e26	1105.2151869506524	1118.229059576719	5.82175577683854	0.9915096934229439
0.014556931470472819	1.6359468640465248e-23	3.72531467246499e9	2.776247510886448e26	1105.2151869506524	1118.229059576719	5.82175577683854	0.9915096934229439
0.014612247094396721	1.6636401689059435e-23	3.72531467246499e9	2.776247510886448e26	1105.2151869506524	1118.229059576719	5.82175577683854	0.9915096934229439
0.014667772914972111	1.6916503745187786e-23	3.72531467246499e9	2.776247510886448e26	1105.2151869506524	1118.229059576719	5.82175577683854	0.9915096934229439
0.0147235097309358	1.719981107251988e-23	3.72531467246499e9	2.776247510886448e26	1105.2151869506524	1118.229059576719	5.82175577683854	0.9915096934229439
0.014779458344060019	1.7486360349699958e-23	3.72531467246499e9	2.776247510886448e26	1105.2151869506524	1118.229059576719	5.82175577683854	0.9915096934229439
0.014835619559163444	1.7776188675093064e-23	3.72531467246499e9	2.776247510886448e26	1105.2151869506524	1118.229059576719	5.82175577683854	0.9915096934229439
0.014891994184123203	1.8069333571590094e-23	3.72531467246499e9	2.776247510886448e26	1105.2151869506524	1118.229059576719	5.82175577683854	0.9915096934229439
0.014948583029886315	1.8365832991464915e-23	3.72531467246499e9	2.776247510886448e26	1105.2151869506524	1118.229059576719	5.82175577683854	0.9915096934229439
0.015005386910481188	1.8665725321286915e-23	3.72531467246499e9	2.776247510886448e26	1105.2151869506524	1118.229059576719	5.82175577683854	0.9915096934229439
0.015062406643029722	1.896904938689291e-23	3.72531467246499e9	2.776247510886448e26	1105.2151869506524	1118.229059576719	5.82175577683854	0.9915096934229439
0.015119643047758615	1.9275844458411317e-23	3.72531467246499e9	2.776247510886448e26	1105.2151869506524	1118.229059576719	5.82175577683854	0.9915096934229439
0.015177096948011622	1.9586150255348797e-23	3.72531467246499e9	2.776247510886448e26	1105.2151869506524	1118.229059576719	5.82175577683854	0.9915096934229439
0.015234769170260913	1.9900006951729962e-23	3.72531467246499e9	2.776247510886448e26	1105.2151869506524	1118.229059576719	5.82175577683854	0.9915096934229439
0.015292660544119409	2.021745518130093e-23	3.72531467246499e9	2.776247510886448e26	1105.2151869506524	1118.229059576719	5.82175577683854	0.9915096934229439
0.015350771902352511	2.0538536042788974e-23	3.72531467246499e9	2.776247510886448e26	1105.2151869506524	1118.229059576719	5.82175577683854	0.9915096934229439
0.015409104080889899	2.08632911052223e-23	3.72531467246499e9	2.776247510886448e26	1105.2151869506524	1118.229059576719	5.82175577683854	0.9915096934229439
0.015467657918838003	2.1191762413314385e-23	3.72531467246499e9	2.776247510886448e26	1105.2151869506524	1118.229059576719	5.82175577683854	0.9915096934229439
0.015526434258491558	2.152399249290442e-23	3.72531467246499e9	2.776247510886448e26	1105.2151869506524	1118.229059576719	5.82175577683854	0.9915096934229439
0.015585433945346169	2.1860024356465447e-23	3.72531467246499e9	2.776247510886448e26	1105.2151869506524	1118.229059576719	5.82175577683854	0.9915096934229439
0.015644657828110285	2.219990150867205e-23	3.72531467246499e9	2.776247510886448e26	1105.2151869506524	1118.229059576719	5.82175577683854	0.9915096934229439
0.01570410675871721	2.254366795203146e-23	3.72531467246499e9	2.776247510886448e26	1105.2151869506524	1118.229059576719	5.82175577683854	0.9915096934229439
0.015763781592337812	2.2891368192583084e-23	3.72531467246499e9	2.776247510886448e26	1105.2151869506524	1118.229059576719	5.82175577683854	0.9915096934229439
0.015823683187392308	2.324304724565751e-23	3.72531467246499e9	2.776247510886448e26	1105.2151869506524	1118.229059576719	5.82175577683854	0.9915096934229439
0.01588381240556313	2.3598750641707425e-23	3.72531467246499e9	2.776247510886448e26	1105.2151869506524	1118.229059576719	5.82175577683854	0.9915096934229439
0.015944170111806794	2.3958524432199288e-23	3.72531467246499e9	2.776247510886448e26	1105.2151869506524	1118.229059576719	5.82175577683854	0.9915096934229439
0.01600475717436681	2.4322415195578023e-23	3.72531467246499e9	2.776247510886448e26	1105.2151869506524	1118.229059576719	5.82175577683854	0.9915096934229439
0.016065574464785976	2.4690470043296312e-23	3.72531467246499e9	2.776247510886448e26	1105.2151869506524	1118.229059576719	5.82175577683854	0.9915096934229439
0.016126622857918705	2.5062736625912636e-23	3.72531467246499e9	2.776247510886448e26	1105.2151869506524	1118.229059576719	5.82175577683854	0.9915096934229439
