r[m]	M[Msun]	rho[g/cm^3]	P[N/m^2]	n_e[pm^-3]	n_p[pm^-3]	muF_e[MeV]	B
0.009999999999999995	-2.2806461672528174e-38	9.831647150472958e9	1.0121782889651599e27	2909.4672474589775	2213.087573964575	8.219557542839597	0.9882496721802481
0.010037448404291967	2.355679693030889e-25	9.831647150472958e9	1.0121782889651599e27	2909.4672474589775	2213.087573964575	8.219557542839597	0.9882496721802481
0.010075037046882382	4.757417028313872e-25	9.831647150472958e9	1.0121782889651599e27	2909.4672474589775	2213.087573964575	8.219557542839597	0.9882496721802481
0.010112766452941206	7.172068951068536e-25	9.831647150472958e9	1.0121782889651599e27	2909.4672474589775	2213.087573964575	8.219557542839597	0.9882496721802481
0.01015063714960521	9.60303259833001e-25	9.831647150472958e9	1.0121782889651599e27	2909.4672474589775	2213.087573964575	8.219557542839597	0.9882496721802481
0.010188649665985164	1.2085581447261691e-24	9.831647150472958e9	1.0121782889651599e27	2909.4672474589775	2213.087573964575	8.219557542839597	0.9882496721802481
0.010226804533173314	1.4586656270351719e-24	9.831647150472958e9	1.0121782889651599e27	2909.4672474589775	2213.087573964575	8.219557542839597	0.9882496721802481
0.010265102284250639	1.7086452050029538e-24	9.831647150472958e9	1.0121782889651599e27	2909.4672474589775	2213.087573964575	8.219557542839597	0.9882496721802481
0.010303543454294545	1.9612174682560722e-24	9.831647150472958e9	1.0121782889651599e27	2909.4672474589775	2213.087573964575	8.219557542839597	0.9882496721802481
0.010342128580386219	2.2166477164324043e-24	9.831647150472958e9	1.0121782889651599e27	2909.4672474589775	2213.087573964575	8.219557542839597	0.9882496721802481
0.010380858201618008	2.474961000378551e-24	9.831647150472958e9	1.0121782889651599e27	2909.4672474589775	2213.087573964575	8.219557542839597	0.9882496721802481
0.01041973285910119	2.736182572417568e-24	9.831647150472958e9	1.0121782889651599e27	2909.4672474589775	2213.087573964575	8.219557542839597	0.9882496721802481
0.010458753095973387	3.000337887910385e-24	9.831647150472958e9	1.0121782889651599e27	2909.4672474589775	2213.087573964575	8.219557542839597	0.9882496721802481
0.010497919457406222	3.267459197737841e-24	9.831647150472958e9	1.0121782889651599e27	2909.4672474589775	2213.087573964575	8.219557542839597	0.9882496721802481
0.010537232490612773	3.5376066381814874e-24	9.831647150472958e9	1.0121782889651599e27	2909.4672474589775	2213.087573964575	8.219557542839597	0.9882496721802481
0.010576692744855471	3.810811632701166e-24	9.831647150472958e9	1.0121782889651599e27	2909.4672474589775	2213.087573964575	8.219557542839597	0.9882496721802481
0.010616300771453646	4.087100983141343e-24	9.831647150472958e9	1.0121782889651599e27	2909.4672474589775	2213.087573964575	8.219557542839597	0.9882496721802481
0.010656057123791104	4.366501706909531e-24	9.831647150472958e9	1.0121782889651599e27	2909.4672474589775	2213.087573964575	8.219557542839597	0.9882496721802481
0.010695962357324111	4.6490410386497035e-24	9.831647150472958e9	1.0121782889651599e27	2909.4672474589775	2213.087573964575	8.219557542839597	0.9882496721802481
0.010736017029588991	4.9347528281198946e-24	9.831647150472958e9	1.0121782889651599e27	2909.4672474589775	2213.087573964575	8.219557542839597	0.9882496721802481
0.010776221700209991	5.223700642286918e-24	9.831647150472958e9	1.0121782889651599e27	2909.4672474589775	2213.087573964575	8.219557542839597	0.9882496721802481
0.01081657693090693	5.515918415574134e-24	9.831647150472958e9	1.0121782889651599e27	2909.4672474589775	2213.087573964575	8.219557542839597	0.9882496721802481
0.010857083285503312	5.811434810779942e-24	9.831647150472958e9	1.0121782889651599e27	2909.4672474589775	2213.087573964575	8.219557542839597	0.9882496721802481
0.01089774132993407	6.110278721231099e-24	9.831647150472958e9	1.0121782889651599e27	2909.4672474589775	2213.087573964575	8.219557542839597	0.9882496721802481
0.010938551632253343	6.412479272569377e-24	9.831647150472958e9	1.0121782889651599e27	2909.4672474589775	2213.087573964575	8.219557542839597	0.9882496721802481
0.010979514762642665	6.718068678416146e-24	9.831647150472958e9	1.0121782889651599e27	2909.4672474589775	2213.087573964575	8.219557542839597	0.9882496721802481
0.011020631293418778	7.027091119431446e-24	9.831647150472958e9	1.0121782889651599e27	2909.4672474589775	2213.087573964575	8.219557542839597	0.9882496721802481
0.011061901799041693	7.339586520762222e-24	9.831647150472958e9	1.0121782889651599e27	2909.4672474589775	2213.087573964575	8.219557542839597	0.9882496721802481
0.011103326856122553	7.655594485568698e-24	9.831647150472958e9	1.0121782889651599e27	2909.4672474589775	2213.087573964575	8.219557542839597	0.9882496721802481
0.011144907043431953	7.975155068881074e-24	9.831647150472958e9	1.0121782889651599e27	2909.4672474589775	2213.087573964575	8.219557542839597	0.9882496721802481
0.011186642941907889	8.298308782741211e-24	9.831647150472958e9	1.0121782889651599e27	2909.4672474589775	2213.087573964575	8.219557542839597	0.9882496721802481
0.011228535134663738	8.625096601402471e-24	9.831647150472958e9	1.0121782889651599e27	2909.4672474589775	2213.087573964575	8.219557542839597	0.9882496721802481
0.011270584206996689	8.955559966591833e-24	9.831647150472958e9	1.0121782889651599e27	2909.4672474589775	2213.087573964575	8.219557542839597	0.9882496721802481
0.011312790746395721	9.289740792828142e-24	9.831647150472958e9	1.0121782889651599e27	2909.4672474589775	2213.087573964575	8.219557542839597	0.9882496721802481
0.01135515534254992	9.627681472802957e-24	9.831647150472958e9	1.0121782889651599e27	2909.4672474589775	2213.087573964575	8.219557542839597	0.9882496721802481
0.011397678587356515	9.969424882820126e-24	9.831647150472958e9	1.0121782889651599e27	2909.4672474589775	2213.087573964575	8.219557542839597	0.9882496721802481
0.011440361074929444	1.0315014388300891e-23	9.831647150472958e9	1.0121782889651599e27	2909.4672474589775	2213.087573964575	8.219557542839597	0.9882496721802481
0.011483203401607502	1.06644938493482e-23	9.831647150472958e9	1.0121782889651599e27	2909.4672474589775	2213.087573964575	8.219557542839597	0.9882496721802481
0.011526206165962536	1.1017907626373935e-23	9.831647150472958e9	1.0121782889651599e27	2909.4672474589775	2213.087573964575	8.219557542839597	0.9882496721802481
0.011569369968808096	1.137530058579366e-23	9.831647150472958e9	1.0121782889651599e27	2909.4672474589775	2213.087573964575	8.219557542839597	0.9882496721802481
0.011612695413207629	1.1736718105781965e-23	9.831647150472958e9	1.0121782889651599e27	2909.4672474589775	2213.087573964575	8.219557542839597	0.9882496721802481
0.01165618310448301	1.2102206082095645e-23	9.831647150472958e9	1.0121782889651599e27	2909.4672474589775	2213.087573964575	8.219557542839597	0.9882496721802481
0.011699833650222802	1.247181093396038e-23	9.831647150472958e9	1.0121782889651599e27	2909.4672474589775	2213.087573964575	8.219557542839597	0.9882496721802481
0.011743647660291038	1.284557961002839e-23	9.831647150472958e9	1.0121782889651599e27	2909.4672474589775	2213.087573964575	8.219557542839597	0.9882496721802481
0.011787625746835593	1.322355959439998e-23	9.831647150472958e9	1.0121782889651599e27	2909.4672474589775	2213.087573964575	8.219557542839597	0.9882496721802481
0.01183176852429659	1.360579891271332e-23	9.831647150472958e9	1.0121782889651599e27	2909.4672474589775	2213.087573964575	8.219557542839597	0.9882496721802481
0.011876076609415278	1.399234613830725e-23	9.831647150472958e9	1.0121782889651599e27	2909.4672474589775	2213.087573964575	8.219557542839597	0.9882496721802481
0.011920550621242509	1.438325039845013e-23	9.831647150472958e9	1.0121782889651599e27	2909.4672474589775	2213.087573964575	8.219557542839597	0.9882496721802481
0.01196519118114723	1.4778561380639282e-23	9.831647150472958e9	1.0121782889651599e27	2909.4672474589775	2213.087573964575	8.219557542839597	0.9882496721802481
0.012009998912825464	1.5178329338975963e-23	9.831647150472958e9	1.0121782889651599e27	2909.4672474589775	2213.087573964575	8.219557542839597	0.9882496721802481
0.012054974442308828	1.5582605100608092e-23	9.831647150472958e9	1.0121782889651599e27	2909.4672474589775	2213.087573964575	8.219557542839597	0.9882496721802481
0.012100118397973376	1.5991440072249006e-23	9.831647150472958e9	1.0121782889651599e27	2909.4672474589775	2213.087573964575	8.219557542839597	0.9882496721802481
0.012145431410548179	1.6404886246767134e-23	9.831647150472958e9	1.0121782889651599e27	2909.4672474589775	2213.087573964575	8.219557542839597	0.9882496721802481
0.012190914113124441	1.6822996209855284e-23	9.831647150472958e9	1.0121782889651599e27	2909.4672474589775	2213.087573964575	8.219557542839597	0.9882496721802481
0.012236567141164193	1.7245823146771344e-23	9.831647150472958e9	1.0121782889651599e27	2909.4672474589775	2213.087573964575	8.219557542839597	0.9882496721802481
0.012282391132509009	1.767342084915526e-23	9.831647150472958e9	1.0121782889651599e27	2909.4672474589775	2213.087573964575	8.219557542839597	0.9882496721802481
0.012328386727389245	1.8105843721928024e-23	9.831647150472954e9	1.0121782889651595e27	2909.467247458976	2213.087573964574	8.219557542839595	0.9882496721802481
0.012374554568432748	1.8543146790263598e-23	9.831647150472954e9	1.0121782889651595e27	2909.467247458976	2213.087573964574	8.219557542839595	0.9882496721802481
0.012420895300673975	1.8985385706643456e-23	9.831647150472954e9	1.0121782889651595e27	2909.467247458976	2213.087573964574	8.219557542839595	0.9882496721802481
0.012467409571562765	1.9432616757987632e-23	9.831647150472954e9	1.0121782889651595e27	2909.467247458976	2213.087573964574	8.219557542839595	0.9882496721802481
0.012514098030973714	1.9884896872871916e-23	9.831647150472954e9	1.0121782889651595e27	2909.467247458976	2213.087573964574	8.219557542839595	0.9882496721802481
0.012560961331215094	2.0342283628822378e-23	9.831647150472954e9	1.0121782889651595e27	2909.467247458976	2213.087573964574	8.219557542839595	0.9882496721802481
0.01260800012703781	2.080483525969267e-23	9.831647150472954e9	1.0121782889651595e27	2909.467247458976	2213.087573964574	8.219557542839595	0.9882496721802481
0.012655215075644865	2.1272610663129413e-23	9.831647150472954e9	1.0121782889651595e27	2909.467247458976	2213.087573964574	8.219557542839595	0.9882496721802481
0.012702606836700327	2.1745669408117333e-23	9.831647150472954e9	1.0121782889651595e27	2909.467247458976	2213.087573964574	8.219557542839595	0.9882496721802481
0.012750176072338651	2.222407174261293e-23	9.831647150472954e9	1.0121782889651595e27	2909.467247458976	2213.087573964574	8.219557542839595	0.9882496721802481
0.012797923447173728	2.270787860126171e-23	9.831647150472954e9	1.0121782889651595e27	2909.467247458976	2213.087573964574	8.219557542839595	0.9882496721802481
0.012845849628308474	2.319715161320812e-23	9.831647150472954e9	1.0121782889651595e27	2909.467247458976	2213.087573964574	8.219557542839595	0.9882496721802481
0.012893955285344007	2.3691953109989397e-23	9.831647150472954e9	1.0121782889651595e27	2909.467247458976	2213.087573964574	8.219557542839595	0.9882496721802481
0.012942241090388823	2.4192346133518617e-23	9.831647150472954e9	1.0121782889651595e27	2909.467247458976	2213.087573964574	8.219557542839595	0.9882496721802481
0.012990707718068529	2.4698394444163773e-23	9.831647150472954e9	1.0121782889651595e27	2909.467247458976	2213.087573964574	8.219557542839595	0.9882496721802481
0.013039355845535065	2.5210162528912623e-23	9.831647150472954e9	1.0121782889651595e27	2909.467247458976	2213.087573964574	8.219557542839595	0.9882496721802481
0.013088186152476113	2.5727715609631852e-23	9.831647150472954e9	1.0121782889651595e27	2909.467247458976	2213.087573964574	8.219557542839595	0.9882496721802481
0.013137199321124792	2.6251119651422417e-23	9.831647150472954e9	1.0121782889651595e27	2909.467247458976	2213.087573964574	8.219557542839595	0.9882496721802481
0.013186396036268989	2.678044137106561e-23	9.831647150472954e9	1.0121782889651595e27	2909.467247458976	2213.087573964574	8.219557542839595	0.9882496721802481
0.013235776985261016	2.7315748245567714e-23	9.831647150472954e9	1.0121782889651595e27	2909.467247458976	2213.087573964574	8.219557542839595	0.9882496721802481
0.013285342858027287	2.785710852080166e-23	9.831647150472954e9	1.0121782889651595e27	2909.467247458976	2213.087573964574	8.219557542839595	0.9882496721802481
0.013335094347077773	2.8404591220243706e-23	9.831647150472954e9	1.0121782889651595e27	2909.467247458976	2213.087573964574	8.219557542839595	0.9882496721802481
0.013385032147515897	2.8958257771649585e-23	9.831647150472954e9	1.0121782889651595e27	2909.467247458976	2213.087573964574	8.219557542839595	0.9882496721802481
0.013435156957048021	2.951816785097906e-23	9.831647150472954e9	1.0121782889651595e27	2909.467247458976	2213.087573964574	8.219557542839595	0.9882496721802481
0.013485469475993411	3.008439183767002e-23	9.831647150472954e9	1.0121782889651595e27	2909.467247458976	2213.087573964574	8.219557542839595	0.9882496721802481
0.013535970407293846	3.0657000931415954e-23	9.831647150472954e9	1.0121782889651595e27	2909.467247458976	2213.087573964574	8.219557542839595	0.9882496721802481
0.013586660456523496	3.12360671348039e-23	9.831647150472954e9	1.0121782889651595e27	2909.467247458976	2213.087573964574	8.219557542839595	0.9882496721802481
0.013637540331898889	3.182166326236959e-23	9.831647150472954e9	1.0121782889651595e27	2909.467247458976	2213.087573964574	8.219557542839595	0.9882496721802481
0.013688610744288591	3.241386294975114e-23	9.831647150472954e9	1.0121782889651595e27	2909.467247458976	2213.087573964574	8.219557542839595	0.9882496721802481
0.013739872407223375	3.3012740662950884e-23	9.831647150472954e9	1.0121782889651595e27	2909.467247458976	2213.087573964574	8.219557542839595	0.9882496721802481
0.013791326036905957	3.3618371707696626e-23	9.831647150472954e9	1.0121782889651595e27	2909.467247458976	2213.087573964574	8.219557542839595	0.9882496721802481
0.013842972352221232	3.42308322389134e-23	9.831647150472954e9	1.0121782889651595e27	2909.467247458976	2213.087573964574	8.219557542839595	0.9882496721802481
0.013894812074746117	3.4850199270297336e-23	9.831647150472954e9	1.0121782889651595e27	2909.467247458976	2213.087573964574	8.219557542839595	0.9882496721802481
0.013946845928759723	3.547655068400074e-23	9.831647150472954e9	1.0121782889651595e27	2909.467247458976	2213.087573964574	8.219557542839595	0.9882496721802481
0.013999074641253557	3.610996524042631e-23	9.831647150472954e9	1.0121782889651595e27	2909.467247458976	2213.087573964574	8.219557542839595	0.9882496721802481
0.014051498941941475	3.675052258812847e-23	9.831647150472954e9	1.0121782889651595e27	2909.467247458976	2213.087573964574	8.219557542839595	0.9882496721802481
0.014104119563270106	3.7398303273831533e-23	9.831647150472954e9	1.0121782889651595e27	2909.467247458976	2213.087573964574	8.219557542839595	0.9882496721802481
0.014156937240428873	3.8053388752555325e-23	9.831647150472954e9	1.0121782889651595e27	2909.467247458976	2213.087573964574	8.219557542839595	0.9882496721802481
0.014209952711360468	3.871586139786037e-23	9.831647150472954e9	1.0121782889651595e27	2909.467247458976	2213.087573964574	8.219557542839595	0.9882496721802481
0.014263166716770982	3.938580451220358e-23	9.831647150472954e9	1.0121782889651595e27	2909.467247458976	2213.087573964574	8.219557542839595	0.9882496721802481
0.014316580000140324	4.006330233741407e-23	9.831647150472954e9	1.0121782889651595e27	2909.467247458976	2213.087573964574	8.219557542839595	0.9882496721802481
0.014370193307732716	4.074844006528741e-23	9.831647150472954e9	1.0121782889651595e27	2909.467247458976	2213.087573964574	8.219557542839595	0.9882496721802481
0.014424007388606894	4.1441303848295205e-23	9.831647150472954e9	1.0121782889651595e27	2909.467247458976	2213.087573964574	8.219557542839595	0.9882496721802481
0.014478022994626817	4.2141980810421504e-23	9.831647150472954e9	1.0121782889651595e27	2909.467247458976	2213.087573964574	8.219557542839595	0.9882496721802481
0.014532240880471944	4.285055905811507e-23	9.831647150472954e9	1.0121782889651595e27	2909.467247458976	2213.087573964574	8.219557542839595	0.9882496721802481
0.014586661803647998	4.3567127691371413e-23	9.831647150472954e9	1.0121782889651595e27	2909.467247458976	2213.087573964574	8.219557542839595	0.9882496721802481
0.014641286524497355	4.429177681493388e-23	9.831647150472954e9	1.0121782889651595e27	2909.467247458976	2213.087573964574	8.219557542839595	0.9882496721802481
0.014696115806209754	4.5024597549625044e-23	9.831647150472954e9	1.0121782889651595e27	2909.467247458976	2213.087573964574	8.219557542839595	0.9882496721802481
0.014751150414833042	4.5765682043805894e-23	9.83164715047295e9	1.0121782889651589e27	2909.4672474589756	2213.087573964573	8.219557542839594	0.9882496721802481
0.01480639111928368	4.651512348496023e-23	9.83164715047295e9	1.0121782889651589e27	2909.4672474589756	2213.087573964573	8.219557542839594	0.9882496721802481
0.014861838691357711	4.7273016111415557e-23	9.83164715047295e9	1.0121782889651589e27	2909.4672474589756	2213.087573964573	8.219557542839594	0.9882496721802481
0.014917493905741316	4.803945522419003e-23	9.83164715047295e9	1.0121782889651589e27	2909.4672474589756	2213.087573964573	8.219557542839594	0.9882496721802481
0.014973357540021869	4.881453719897921e-23	9.83164715047295e9	1.0121782889651589e27	2909.4672474589756	2213.087573964573	8.219557542839594	0.9882496721802481
0.015029430374698598	4.9598359498271976e-23	9.83164715047295e9	1.0121782889651589e27	2909.4672474589756	2213.087573964573	8.219557542839594	0.9882496721802481
0.015085713193193575	5.039102068360707e-23	9.83164715047295e9	1.0121782889651589e27	2909.4672474589756	2213.087573964573	8.219557542839594	0.9882496721802481
0.015142206781862752	5.1192620427968027e-23	9.83164715047295e9	1.0121782889651589e27	2909.4672474589756	2213.087573964573	8.219557542839594	0.9882496721802481
0.015198911930006736	5.200325952831354e-23	9.83164715047295e9	1.0121782889651589e27	2909.4672474589756	2213.087573964573	8.219557542839594	0.9882496721802481
0.015255829429882064	5.2823039918255666e-23	9.83164715047295e9	1.0121782889651589e27	2909.4672474589756	2213.087573964573	8.219557542839594	0.9882496721802481
0.015312960076712054	5.365206468087423e-23	9.83164715047295e9	1.0121782889651589e27	2909.4672474589756	2213.087573964573	8.219557542839594	0.9882496721802481
0.01537030466869801	5.449043806168047e-23	9.83164715047295e9	1.0121782889651589e27	2909.4672474589756	2213.087573964573	8.219557542839594	0.9882496721802481
0.015427864007030459	5.53382654817265e-23	9.83164715047295e9	1.0121782889651589e27	2909.4672474589756	2213.087573964573	8.219557542839594	0.9882496721802481
0.015485638895900143	5.619565355085856e-23	9.83164715047295e9	1.0121782889651589e27	2909.4672474589756	2213.087573964573	8.219557542839594	0.9882496721802481
0.015543630142509491	5.706271008112612e-23	9.83164715047295e9	1.0121782889651589e27	2909.4672474589756	2213.087573964573	8.219557542839594	0.9882496721802481
0.015601838557083652	5.793954410033502e-23	9.83164715047295e9	1.0121782889651589e27	2909.4672474589756	2213.087573964573	8.219557542839594	0.9882496721802481
0.015660264952882058	5.882626586576079e-23	9.83164715047295e9	1.0121782889651589e27	2909.4672474589756	2213.087573964573	8.219557542839594	0.9882496721802481
0.015718910146209582	5.972298687800984e-23	9.83164715047295e9	1.0121782889651589e27	2909.4672474589756	2213.087573964573	8.219557542839594	0.9882496721802481
0.01577777495642803	6.062981989504136e-23	9.83164715047295e9	1.0121782889651589e27	2909.4672474589756	2213.087573964573	8.219557542839594	0.9882496721802481
0.015836860205967668	6.15468789463474e-23	9.83164715047295e9	1.0121782889651589e27	2909.4672474589756	2213.087573964573	8.219557542839594	0.9882496721802481
0.01589616672033852	6.247427934728828e-23	9.83164715047295e9	1.0121782889651589e27	2909.4672474589756	2213.087573964573	8.219557542839594	0.9882496721802481
