r[m]	M[Msun]	rho[g/cm^3]	P[N/m^2]	n_e[pm^-3]	n_p[pm^-3]	muF_e[MeV]	B
0.009999999999999985	-4.4913668623964684e-39	4.855006555350036e8	1.8052845095393551e25	144.19450426773767	145.9140491047743	2.7309268031167533	0.9958185909977273
0.010039071928296672	1.215881130729244e-26	4.855006555350036e8	1.8052845095393551e25	144.19450426773767	145.9140491047743	2.7309268031167533	0.9958185909977273
0.01007829651815144	2.4652750850319e-26	4.855006555350036e8	1.8052845095393551e25	144.19450426773767	145.9140491047743	2.7309268031167533	0.9958185909977273
0.010117674366042438	3.7390708990119055e-26	4.855006555350036e8	1.8052845095393551e25	144.19450426773767	145.9140491047743	2.7309268031167533	0.9958185909977273
0.01015720607077832	5.0279382460527895e-26	4.855006555350036e8	1.8052845095393551e25	144.19450426773767	145.9140491047743	2.7309268031167533	0.9958185909977273
0.010196892233507532	6.322323829985107e-26	4.855006555350036e8	1.8052845095393551e25	144.19450426773767	145.9140491047743	2.7309268031167533	0.9958185909977273
0.010236733457727198	7.612447727191476e-26	4.855006555350036e8	1.8052845095393551e25	144.19450426773767	145.9140491047743	2.7309268031167533	0.9958185909977273
0.010276730349292457	8.915428016776773e-26	4.855006555350036e8	1.8052845095393551e25	144.19450426773767	145.9140491047743	2.7309268031167533	0.9958185909977273
0.010316883516425651	1.025456927895295e-25	4.855006555350036e8	1.8052845095393551e25	144.19450426773767	145.9140491047743	2.7309268031167533	0.9958185909977273
0.010357193569725557	1.161994564957845e-25	4.855006555350036e8	1.8052845095393551e25	144.19450426773767	145.9140491047743	2.7309268031167533	0.9958185909977273
0.010397661122176638	1.3001306565947735e-25	4.855006555350036e8	1.8052845095393551e25	144.19450426773767	145.9140491047743	2.7309268031167533	0.9958185909977273
0.01043828678915853	1.4388156589345148e-25	4.855006555350036e8	1.8052845095393551e25	144.19450426773767	145.9140491047743	2.7309268031167533	0.9958185909977273
0.010479071188455156	1.5769789397090554e-25	4.855006555350036e8	1.8052845095393551e25	144.19450426773767	145.9140491047743	2.7309268031167533	0.9958185909977273
0.010520014940264274	1.7171029641110344e-25	4.855006555350036e8	1.8052845095393551e25	144.19450426773767	145.9140491047743	2.7309268031167533	0.9958185909977273
0.010561118667206883	1.8616184797553907e-25	4.855006555350036e8	1.8052845095393551e25	144.19450426773767	145.9140491047743	2.7309268031167533	0.9958185909977273
0.010602382994336674	2.0099959048330288e-25	4.855006555350036e8	1.8052845095393551e25	144.19450426773767	145.9140491047743	2.7309268031167533	0.9958185909977273
0.010643808549149548	2.1616925196736677e-25	4.855006555350036e8	1.8052845095393551e25	144.19450426773767	145.9140491047743	2.7309268031167533	0.9958185909977273
0.010685395961593108	2.316152248873455e-25	4.855006555350036e8	1.8052845095393551e25	144.19450426773767	145.9140491047743	2.7309268031167533	0.9958185909977273
0.010727145864076415	2.472805440328216e-25	4.855006555350036e8	1.8052845095393551e25	144.19450426773767	145.9140491047743	2.7309268031167533	0.9958185909977273
0.010769058891479343	2.631068641129177e-25	4.855006555350036e8	1.8052845095393551e25	144.19450426773767	145.9140491047743	2.7309268031167533	0.9958185909977273
0.01081113568116241	2.7903443702832624e-25	4.855006555350036e8	1.8052845095393551e25	144.19450426773767	145.9140491047743	2.7309268031167533	0.9958185909977273
0.010853376872976425	2.950020888213605e-25	4.855006555350036e8	1.8052845095393551e25	144.19450426773767	145.9140491047743	2.7309268031167533	0.9958185909977273
0.01089578310927221	3.109471962999148e-25	4.855006555350036e8	1.8052845095393551e25	144.19450426773767	145.9140491047743	2.7309268031167533	0.9958185909977273
0.010938355034910337	3.268056633310094e-25	4.855006555350036e8	1.8052845095393551e25	144.19450426773767	145.9140491047743	2.7309268031167533	0.9958185909977273
0.010981093297271111	3.4264636602676086e-25	4.855006555350036e8	1.8052845095393551e25	144.19450426773767	145.9140491047743	2.7309268031167533	0.9958185909977273
0.011023998546264131	3.589538358782715e-25	4.855006555350036e8	1.8052845095393551e25	144.19450426773767	145.9140491047743	2.7309268031167533	0.9958185909977273
0.011067071434338372	3.7572392684698427e-25	4.855006555350036e8	1.8052845095393551e25	144.19450426773767	145.9140491047743	2.7309268031167533	0.9958185909977273
0.011110312616492053	3.9289223342853247e-25	4.855006555350036e8	1.8052845095393551e25	144.19450426773767	145.9140491047743	2.7309268031167533	0.9958185909977273
0.011153722750282586	4.1039276413768626e-25	4.855006555350036e8	1.8052845095393551e25	144.19450426773767	145.9140491047743	2.7309268031167533	0.9958185909977273
0.011197302495836555	4.281579152630394e-25	4.855006555350036e8	1.8052845095393551e25	144.19450426773767	145.9140491047743	2.7309268031167533	0.9958185909977273
0.01124105251585992	4.4611844424928025e-25	4.855006555350036e8	1.8052845095393551e25	144.19450426773767	145.9140491047743	2.7309268031167533	0.9958185909977273
0.011284973475647816	4.642034427018736e-25	4.855006555350036e8	1.8052845095393551e25	144.19450426773767	145.9140491047743	2.7309268031167533	0.9958185909977273
0.01132906604309487	4.82340309009589e-25	4.855006555350036e8	1.8052845095393551e25	144.19450426773767	145.9140491047743	2.7309268031167533	0.9958185909977273
0.011373330888705293	5.004547205795292e-25	4.855006555350036e8	1.8052845095393551e25	144.19450426773767	145.9140491047743	2.7309268031167533	0.9958185909977273
0.011417768685603092	5.184706056797306e-25	4.855006555350036e8	1.8052845095393551e25	144.19450426773767	145.9140491047743	2.7309268031167533	0.9958185909977273
0.011462380109542295	5.364094450196961e-25	4.855006555350036e8	1.8052845095393551e25	144.19450426773767	145.9140491047743	2.7309268031167533	0.9958185909977273
0.011507165838917189	5.545626651205394e-25	4.855006555350036e8	1.8052845095393551e25	144.19450426773767	145.9140491047743	2.7309268031167533	0.9958185909977273
0.011552126554772814	5.729578808943847e-25	4.855006555350036e8	1.8052845095393551e25	144.19450426773767	145.9140491047743	2.7309268031167533	0.9958185909977273
0.011597262940815048	5.915973772642608e-25	4.855006555350036e8	1.8052845095393551e25	144.19450426773767	145.9140491047743	2.7309268031167533	0.9958185909977273
0.011642575683421183	6.104834585678776e-25	4.855006555350036e8	1.8052845095393551e25	144.19450426773767	145.9140491047743	2.7309268031167533	0.9958185909977273
0.01168806547165032	6.296184487155771e-25	4.855006555350036e8	1.8052845095393551e25	144.19450426773767	145.9140491047743	2.7309268031167533	0.9958185909977273
0.011733732997253851	6.490046913495613e-25	4.855006555350036e8	1.8052845095393551e25	144.19450426773767	145.9140491047743	2.7309268031167533	0.9958185909977273
0.011779578954685921	6.686445500043647e-25	4.855006555350036e8	1.8052845095393551e25	144.19450426773767	145.9140491047743	2.7309268031167533	0.9958185909977273
0.011825604041114187	6.885404082687158e-25	4.855006555350036e8	1.8052845095393551e25	144.19450426773767	145.9140491047743	2.7309268031167533	0.9958185909977273
0.011871808956430129	7.0869466994847975e-25	4.855006555350036e8	1.8052845095393551e25	144.19450426773767	145.9140491047743	2.7309268031167533	0.9958185909977273
0.011918194403259889	7.291097592311131e-25	4.855006555350036e8	1.8052845095393551e25	144.19450426773767	145.9140491047743	2.7309268031167533	0.9958185909977273
0.011964761086974904	7.497881208513124e-25	4.855006555350036e8	1.8052845095393551e25	144.19450426773767	145.9140491047743	2.7309268031167533	0.9958185909977273
0.01201150971570263	7.7073222025801955e-25	4.855006555350036e8	1.8052845095393551e25	144.19450426773767	145.9140491047743	2.7309268031167533	0.9958185909977273
0.01205844100033732	7.919445437827532e-25	4.855006555350036e8	1.8052845095393551e25	144.19450426773767	145.9140491047743	2.7309268031167533	0.9958185909977273
0.01210555565455077	8.134275988092516e-25	4.855006555350036e8	1.8052845095393551e25	144.19450426773767	145.9140491047743	2.7309268031167533	0.9958185909977273
0.012152854394803387	8.351839139445995e-25	4.855006555350036e8	1.8052845095393551e25	144.19450426773767	145.9140491047743	2.7309268031167533	0.9958185909977273
0.01220033794035477	8.57216039191468e-25	4.855006555350036e8	1.8052845095393551e25	144.19450426773767	145.9140491047743	2.7309268031167533	0.9958185909977273
0.012248007013274859	8.795265461219802e-25	4.855006555350036e8	1.8052845095393551e25	144.19450426773767	145.9140491047743	2.7309268031167533	0.9958185909977273
0.012295862338454857	9.021180280528254e-25	4.855006555350036e8	1.8052845095393551e25	144.19450426773767	145.9140491047743	2.7309268031167533	0.9958185909977273
0.012343904643618262	9.249931002218106e-25	4.855006555350036e8	1.8052845095393551e25	144.19450426773767	145.9140491047743	2.7309268031167533	0.9958185909977273
0.01239213465933187	9.481543999657784e-25	4.855006555350036e8	1.8052845095393551e25	144.19450426773767	145.9140491047743	2.7309268031167533	0.9958185909977273
0.012440553119017102	9.716045869000815e-25	4.855006555350036e8	1.8052845095393551e25	144.19450426773767	145.9140491047743	2.7309268031167533	0.9958185909977273
0.012489160758960836	9.953463430992223e-25	4.855006555350036e8	1.8052845095393551e25	144.19450426773767	145.9140491047743	2.7309268031167533	0.9958185909977273
0.012537958318326829	1.0193823732792015e-24	4.855006555350036e8	1.8052845095393551e25	144.19450426773767	145.9140491047743	2.7309268031167533	0.9958185909977273
0.012586946539166878	1.0437154049811696e-24	4.855006555350036e8	1.8052845095393551e25	144.19450426773767	145.9140491047743	2.7309268031167533	0.9958185909977273
0.012636126166432135	1.0683481887565923e-24	4.855006555350036e8	1.8052845095393551e25	144.19450426773767	145.9140491047743	2.7309268031167533	0.9958185909977273
0.012685497947984408	1.093283498353868e-24	4.855006555350036e8	1.8052845095393551e25	144.19450426773767	145.9140491047743	2.7309268031167533	0.9958185909977273
0.012735062634607497	1.1185241309064186e-24	4.855006555350036e8	1.8052845095393551e25	144.19450426773767	145.9140491047743	2.7309268031167533	0.9958185909977273
0.012784820980018817	1.1440729071224134e-24	4.855006555350036e8	1.8052845095393551e25	144.19450426773767	145.9140491047743	2.7309268031167533	0.9958185909977273
0.012834773740880545	1.1699326714757232e-24	4.855006555350036e8	1.8052845095393551e25	144.19450426773767	145.9140491047743	2.7309268031167533	0.9958185909977273
0.012884921676811332	1.1961062923986747e-24	4.855006555350036e8	1.8052845095393551e25	144.19450426773767	145.9140491047743	2.7309268031167533	0.9958185909977273
0.012935265550397812	1.2225966624762081e-24	4.855006555350036e8	1.8052845095393551e25	144.19450426773767	145.9140491047743	2.7309268031167533	0.9958185909977273
0.012985806127206187	1.2494066986415902e-24	4.855006555350036e8	1.8052845095393551e25	144.19450426773767	145.9140491047743	2.7309268031167533	0.9958185909977273
0.013036544175793821	1.2765393423736776e-24	4.855006555350036e8	1.8052845095393551e25	144.19450426773767	145.9140491047743	2.7309268031167533	0.9958185909977273
0.013087480467721142	1.3039975598958803e-24	4.855006555350036e8	1.8052845095393551e25	144.19450426773767	145.9140491047743	2.7309268031167533	0.9958185909977273
0.01313861577756305	1.3317843423764292e-24	4.855006555350036e8	1.8052845095393551e25	144.19450426773767	145.9140491047743	2.7309268031167533	0.9958185909977273
0.013189950882920918	1.35990270613052e-24	4.855006555350036e8	1.8052845095393551e25	144.19450426773767	145.9140491047743	2.7309268031167533	0.9958185909977273
0.013241486564434347	1.3883556928239224e-24	4.855006555350036e8	1.8052845095393551e25	144.19450426773767	145.9140491047743	2.7309268031167533	0.9958185909977273
0.01329322360579306	1.4171463696782488e-24	4.855006555350036e8	1.8052845095393551e25	144.19450426773767	145.9140491047743	2.7309268031167533	0.9958185909977273
0.013345162793748743	1.4462778296778114e-24	4.855006555350036e8	1.8052845095393551e25	144.19450426773767	145.9140491047743	2.7309268031167533	0.9958185909977273
0.01339730491812724	1.4757531917782848e-24	4.855006555350036e8	1.8052845095393551e25	144.19450426773767	145.9140491047743	2.7309268031167533	0.9958185909977273
0.01344965077184023	1.5055756011167251e-24	4.855006555350036e8	1.8052845095393551e25	144.19450426773767	145.9140491047743	2.7309268031167533	0.9958185909977273
0.013502201150897512	1.535748229223572e-24	4.855006555350036e8	1.8052845095393551e25	144.19450426773767	145.9140491047743	2.7309268031167533	0.9958185909977273
0.013554956854419042	1.5662742742361625e-24	4.855006555350036e8	1.8052845095393551e25	144.19450426773767	145.9140491047743	2.7309268031167533	0.9958185909977273
0.013607918684647098	1.5971569611140003e-24	4.855006555350036e8	1.8052845095393551e25	144.19450426773767	145.9140491047743	2.7309268031167533	0.9958185909977273
0.013661087446958466	1.6283995418557207e-24	4.855006555350036e8	1.8052845095393551e25	144.19450426773767	145.9140491047743	2.7309268031167533	0.9958185909977273
0.013714463949876642	1.660005295717755e-24	4.855006555350036e8	1.8052845095393551e25	144.19450426773767	145.9140491047743	2.7309268031167533	0.9958185909977273
0.01376804900508435	1.6919775294349e-24	4.855006555350036e8	1.8052845095393551e25	144.19450426773767	145.9140491047743	2.7309268031167533	0.9958185909977273
0.013821843427435542	1.7243195774423054e-24	4.855006555350036e8	1.8052845095393551e25	144.19450426773767	145.9140491047743	2.7309268031167533	0.9958185909977273
0.013875848034968023	1.7570348020995704e-24	4.855006555350036e8	1.8052845095393551e25	144.19450426773767	145.9140491047743	2.7309268031167533	0.9958185909977273
0.013930063648915822	1.7901265939164342e-24	4.855006555350036e8	1.8052845095393551e25	144.19450426773767	145.9140491047743	2.7309268031167533	0.9958185909977273
0.013984491093721694	1.823598371780327e-24	4.855006555350036e8	1.8052845095393551e25	144.19450426773767	145.9140491047743	2.7309268031167533	0.9958185909977273
0.01403913119704959	1.8574535831856566e-24	4.855006555350036e8	1.8052845095393551e25	144.19450426773767	145.9140491047743	2.7309268031167533	0.9958185909977273
0.014093984789797481	1.8916957044651354e-24	4.855006555350036e8	1.8052845095393551e25	144.19450426773767	145.9140491047743	2.7309268031167533	0.9958185909977273
0.014149052706109637	1.9263282410225563e-24	4.855006555350036e8	1.8052845095393551e25	144.19450426773767	145.9140491047743	2.7309268031167533	0.9958185909977273
0.014204335783389553	1.9613547275677988e-24	4.855006555350036e8	1.8052845095393551e25	144.19450426773767	145.9140491047743	2.7309268031167533	0.9958185909977273
0.014259834862312618	1.9967787283535133e-24	4.855006555350036e8	1.8052845095393551e25	144.19450426773767	145.9140491047743	2.7309268031167533	0.9958185909977273
0.014315550786838906	2.0326038374137317e-24	4.855006555350036e8	1.8052845095393551e25	144.19450426773767	145.9140491047743	2.7309268031167533	0.9958185909977273
0.014371484404226	2.0688336788043606e-24	4.855006555350036e8	1.8052845095393551e25	144.19450426773767	145.9140491047743	2.7309268031167533	0.9958185909977273
0.01442763656504183	2.1054719068455635e-24	4.855006555350036e8	1.8052845095393551e25	144.19450426773767	145.9140491047743	2.7309268031167533	0.9958185909977273
0.014484008123177827	2.142522206366251e-24	4.855006555350036e8	1.8052845095393551e25	144.19450426773767	145.9140491047743	2.7309268031167533	0.9958185909977273
0.01454059993586157	2.1799882929501394e-24	4.855006555350036e8	1.8052845095393551e25	144.19450426773767	145.9140491047743	2.7309268031167533	0.9958185909977273
0.01459741286367005	2.217873913184132e-24	4.855006555350036e8	1.8052845095393551e25	144.19450426773767	145.9140491047743	2.7309268031167533	0.9958185909977273
0.014654447770542693	2.2561828449085033e-24	4.855006555350036e8	1.8052845095393551e25	144.19450426773767	145.9140491047743	2.7309268031167533	0.9958185909977273
0.014711705523794512	2.294918897469096e-24	4.855006555350036e8	1.8052845095393551e25	144.19450426773767	145.9140491047743	2.7309268031167533	0.9958185909977273
0.014769186994129218	2.3340859119714813e-24	4.855006555350036e8	1.8052845095393551e25	144.19450426773767	145.9140491047743	2.7309268031167533	0.9958185909977273
0.014826893055652716	2.3736877615373537e-24	4.855006555350036e8	1.8052845095393551e25	144.19450426773767	145.9140491047743	2.7309268031167533	0.9958185909977273
0.014884824585886027	2.4137283515625383e-24	4.855006555350036e8	1.8052845095393551e25	144.19450426773767	145.9140491047743	2.7309268031167533	0.9958185909977273
0.014942982465778878	2.454211619977471e-24	4.855006555350036e8	1.8052845095393551e25	144.19450426773767	145.9140491047743	2.7309268031167533	0.9958185909977273
0.015001367579723033	2.4951415375095335e-24	4.855006555350036e8	1.8052845095393551e25	144.19450426773767	145.9140491047743	2.7309268031167533	0.9958185909977273
0.015059980815565753	2.5365221079475184e-24	4.855006555350036e8	1.8052845095393551e25	144.19450426773767	145.9140491047743	2.7309268031167533	0.9958185909977273
0.015118823064623279	2.5783573684081966e-24	4.855006555350036e8	1.8052845095393551e25	144.19450426773767	145.9140491047743	2.7309268031167533	0.9958185909977273
0.01517789522169434	2.620651389604947e-24	4.855006555350036e8	1.8052845095393551e25	144.19450426773767	145.9140491047743	2.7309268031167533	0.9958185909977273
0.015237198185074007	2.66340827611876e-24	4.855006555350036e8	1.8052845095393551e25	144.19450426773767	145.9140491047743	2.7309268031167533	0.9958185909977273
0.01529673285656697	2.706632166670927e-24	4.855006555350036e8	1.8052845095393551e25	144.19450426773767	145.9140491047743	2.7309268031167533	0.9958185909977273
0.015356500141501505	2.750327234398353e-24	4.855006555350036e8	1.8052845095393551e25	144.19450426773767	145.9140491047743	2.7309268031167533	0.9958185909977273
0.015416500948743186	2.7944976871308436e-24	4.855006555350036e8	1.8052845095393551e25	144.19450426773767	145.9140491047743	2.7309268031167533	0.9958185909977273
0.015476736190708695	2.8391477676706056e-24	4.855006555350036e8	1.8052845095393551e25	144.19450426773767	145.9140491047743	2.7309268031167533	0.9958185909977273
0.015537206783379642	2.8842817540739578e-24	4.855006555350036e8	1.8052845095393551e25	144.19450426773767	145.9140491047743	2.7309268031167533	0.9958185909977273
0.015597913646316745	2.929903959935488e-24	4.855006555350036e8	1.8052845095393551e25	144.19450426773767	145.9140491047743	2.7309268031167533	0.9958185909977273
0.015658857702673425	2.9760187346739983e-24	4.855006555350036e8	1.8052845095393551e25	144.19450426773767	145.9140491047743	2.7309268031167533	0.9958185909977273
0.015720039879210113	3.0226304638212033e-24	4.855006555350036e8	1.8052845095393551e25	144.19450426773767	145.9140491047743	2.7309268031167533	0.9958185909977273
0.015781461106308268	3.069743569312475e-24	4.855006555350036e8	1.8052845095393551e25	144.19450426773767	145.9140491047743	2.7309268031167533	0.9958185909977273
0.01584312231798453	3.117362509779946e-24	4.855006555350036e8	1.8052845095393551e25	144.19450426773767	145.9140491047743	2.7309268031167533	0.9958185909977273
0.015905024451904858	3.165491780847888e-24	4.855006555350036e8	1.8052845095393551e25	144.19450426773767	145.9140491047743	2.7309268031167533	0.9958185909977273
0.015967168449399046	3.214135915430681e-24	4.855006555350036e8	1.8052845095393551e25	144.19450426773767	145.9140491047743	2.7309268031167533	0.9958185909977273
0.01602955525547465	3.263299484032651e-24	4.855006555350036e8	1.8052845095393551e25	144.19450426773767	145.9140491047743	2.7309268031167533	0.9958185909977273
0.01609218581883162	3.312987095050797e-24	4.855006555350036e8	1.8052845095393551e25	144.19450426773767	145.9140491047743	2.7309268031167533	0.9958185909977273
0.016155061091876654	3.3632033950796436e-24	4.855006555350036e8	1.8052845095393551e25	144.19450426773767	145.9140491047743	2.7309268031167533	0.9958185909977273
