r[m]	M[Msun]	rho[g/cm^3]	P[N/m^2]	n_e[pm^-3]	n_p[pm^-3]	muF_e[MeV]	B
0.009999999999999992	-2.605396196375197e-41	5.717760073336076e6	3.6921178876926688e22	1.7086885815648913	5.160424120802259	0.37995944869685977	0.9993341377257163
0.010041046877572046	1.5083345649871746e-28	5.717760073336076e6	3.6921178876926688e22	1.7086885815648913	5.160424120802259	0.37995944869685977	0.9993341377257163
0.010082262239759943	3.072619656127222e-28	5.717760073336076e6	3.6921178876926688e22	1.7086885815648913	5.160424120802259	0.37995944869685977	0.9993341377257163
0.01012364677814042	4.691017081605173e-28	5.717760073336076e6	3.6921178876926688e22	1.7086885815648913	5.160424120802259	0.37995944869685977	0.9993341377257163
0.010165201187128926	6.36163346423479e-28	5.717760073336076e6	3.6921178876926688e22	1.7086885815648913	5.160424120802259	0.37995944869685977	0.9993341377257163
0.010206926163991265	8.082519244316253e-28	5.717760073336076e6	3.6921178876926688e22	1.7086885815648913	5.160424120802259	0.37995944869685977	0.9993341377257163
0.0102488224088553	9.851667667378653e-28	5.717760073336076e6	3.6921178876926688e22	1.7086885815648913	5.160424120802259	0.37995944869685977	0.9993341377257163
0.010290890624722701	1.1667013756597658e-27	5.717760073336076e6	3.6921178876926688e22	1.7086885815648913	5.160424120802259	0.37995944869685977	0.9993341377257163
0.010333131517480741	1.3526433269673131e-27	5.717760073336076e6	3.6921178876926688e22	1.7086885815648913	5.160424120802259	0.37995944869685977	0.9993341377257163
0.010375545795914138	1.5427741639952002e-27	5.717760073336076e6	3.6921178876926688e22	1.7086885815648913	5.160424120802259	0.37995944869685977	0.9993341377257163
0.010418134171716952	1.7368692901576503e-27	5.717760073336076e6	3.6921178876926688e22	1.7086885815648913	5.160424120802259	0.37995944869685977	0.9993341377257163
0.010460897359504522	1.934697859843536e-27	5.717760073336076e6	3.6921178876926688e22	1.7086885815648913	5.160424120802259	0.37995944869685977	0.9993341377257163
0.010503836076825465	2.136022667669455e-27	5.717760073336076e6	3.6921178876926688e22	1.7086885815648913	5.160424120802259	0.37995944869685977	0.9993341377257163
0.010546951044173703	2.340600036067688e-27	5.717760073336076e6	3.6921178876926688e22	1.7086885815648913	5.160424120802259	0.37995944869685977	0.9993341377257163
0.010590242985000569	2.5481797011862992e-27	5.717760073336076e6	3.6921178876926688e22	1.7086885815648913	5.160424120802259	0.37995944869685977	0.9993341377257163
0.01063371262572693	2.7585046970776142e-27	5.717760073336076e6	3.6921178876926688e22	1.7086885815648913	5.160424120802259	0.37995944869685977	0.9993341377257163
0.010677360695755395	2.9713112381515918e-27	5.717760073336076e6	3.6921178876926688e22	1.7086885815648913	5.160424120802259	0.37995944869685977	0.9993341377257163
0.010721187927482528	3.1863285998699486e-27	5.717760073336076e6	3.6921178876926688e22	1.7086885815648913	5.160424120802259	0.37995944869685977	0.9993341377257163
0.010765195056311164	3.4032789976567726e-27	5.717760073336076e6	3.6921178876926688e22	1.7086885815648913	5.160424120802259	0.37995944869685977	0.9993341377257163
0.010809382820662735	3.6218774640008395e-27	5.717760073336076e6	3.6921178876926688e22	1.7086885815648913	5.160424120802259	0.37995944869685977	0.9993341377257163
0.010853751961989656	3.841831723724688e-27	5.717760073336076e6	3.6921178876926688e22	1.7086885815648913	5.160424120802259	0.37995944869685977	0.9993341377257163
0.01089830322478778	4.062842067395206e-27	5.717760073336076e6	3.6921178876926688e22	1.7086885815648913	5.160424120802259	0.37995944869685977	0.9993341377257163
0.010943037356608879	4.284601222849819e-27	5.717760073336076e6	3.6921178876926688e22	1.7086885815648913	5.160424120802259	0.37995944869685977	0.9993341377257163
0.010987955108073195	4.5067942248126196e-27	5.717760073336076e6	3.6921178876926688e22	1.7086885815648913	5.160424120802259	0.37995944869685977	0.9993341377257163
0.011033057232882027	4.729098282573681e-27	5.717760073336076e6	3.6921178876926688e22	1.7086885815648913	5.160424120802259	0.37995944869685977	0.9993341377257163
0.011078344487830384	4.9511826457052774e-27	5.717760073336076e6	3.6921178876926688e22	1.7086885815648913	5.160424120802259	0.37995944869685977	0.9993341377257163
0.011123817632819687	5.172708467787595e-27	5.717760073336076e6	3.6921178876926688e22	1.7086885815648913	5.160424120802259	0.37995944869685977	0.9993341377257163
0.011169477430870507	5.3933286681166934e-27	5.717760073336076e6	3.6921178876926688e22	1.7086885815648913	5.160424120802259	0.37995944869685977	0.9993341377257163
0.011215324648135384	5.6126877913670265e-27	5.717760073336076e6	3.6921178876926688e22	1.7086885815648913	5.160424120802259	0.37995944869685977	0.9993341377257163
0.01126136005391167	5.830421865180102e-27	5.717760073336076e6	3.6921178876926688e22	1.7086885815648913	5.160424120802259	0.37995944869685977	0.9993341377257163
0.011307584420654446	6.046158255651144e-27	5.717760073336076e6	3.6921178876926688e22	1.7086885815648913	5.160424120802259	0.37995944869685977	0.9993341377257163
0.011353998523989474	6.26356620098167e-27	5.717760073336076e6	3.6921178876926688e22	1.7086885815648913	5.160424120802259	0.37995944869685977	0.9993341377257163
0.011400603142726222	6.488925158577932e-27	5.717760073336076e6	3.6921178876926688e22	1.7086885815648913	5.160424120802259	0.37995944869685977	0.9993341377257163
0.01144739905887093	6.722018802246405e-27	5.717760073336076e6	3.6921178876926688e22	1.7086885815648913	5.160424120802259	0.37995944869685977	0.9993341377257163
0.011494387057639723	6.962527620757337e-27	5.717760073336076e6	3.6921178876926688e22	1.7086885815648913	5.160424120802259	0.37995944869685977	0.9993341377257163
0.011541567927471796	7.210122865991424e-27	5.717760073336076e6	3.6921178876926688e22	1.7086885815648913	5.160424120802259	0.37995944869685977	0.9993341377257163
0.011588942460042646	7.464466387562547e-27	5.717760073336076e6	3.6921178876926688e22	1.7086885815648913	5.160424120802259	0.37995944869685977	0.9993341377257163
0.011636511450277342	7.725210464943034e-27	5.717760073336076e6	3.6921178876926688e22	1.7086885815648913	5.160424120802259	0.37995944869685977	0.9993341377257163
0.011684275696363877	7.99199763705712e-27	5.717760073336076e6	3.6921178876926688e22	1.7086885815648913	5.160424120802259	0.37995944869685977	0.9993341377257163
0.011732235999766555	8.264460529307112e-27	5.717760073336076e6	3.6921178876926688e22	1.7086885815648913	5.160424120802259	0.37995944869685977	0.9993341377257163
0.011780393165239442	8.542221677996797e-27	5.717760073336076e6	3.6921178876926688e22	1.7086885815648913	5.160424120802259	0.37995944869685977	0.9993341377257163
0.011828748000839868	8.824893352115747e-27	5.717760073336076e6	3.6921178876926688e22	1.7086885815648913	5.160424120802259	0.37995944869685977	0.9993341377257163
0.011877301317941983	9.112077372448124e-27	5.717760073336076e6	3.6921178876926688e22	1.7086885815648913	5.160424120802259	0.37995944869685977	0.9993341377257163
0.011926053931250381	9.403364927968825e-27	5.717760073336076e6	3.6921178876926688e22	1.7086885815648913	5.160424120802259	0.37995944869685977	0.9993341377257163
0.011975006658813757	9.698336389489236e-27	5.717760073336076e6	3.6921178876926688e22	1.7086885815648913	5.160424120802259	0.37995944869685977	0.9993341377257163
0.012024160322038643	9.996561120514724e-27	5.717760073336076e6	3.6921178876926688e22	1.7086885815648913	5.160424120802259	0.37995944869685977	0.9993341377257163
0.012073515745703192	1.0297597285275116e-26	5.717760073336076e6	3.6921178876926688e22	1.7086885815648913	5.160424120802259	0.37995944869685977	0.9993341377257163
0.012123073757971007	1.0600991653889135e-26	5.717760073336076e6	3.6921178876926688e22	1.7086885815648913	5.160424120802259	0.37995944869685977	0.9993341377257163
0.012172835190405051	1.0906279404623133e-26	5.717760073336076e6	3.6921178876926688e22	1.7086885815648913	5.160424120802259	0.37995944869685977	0.9993341377257163
0.012222800877981586	1.121298392320398e-26	5.717760073336076e6	3.6921178876926688e22	1.7086885815648913	5.160424120802259	0.37995944869685977	0.9993341377257163
0.012272971659104197	1.1520616599145504e-26	5.717760073336076e6	3.6921178876926688e22	1.7086885815648913	5.160424120802259	0.37995944869685977	0.9993341377257163
0.012323348375617852	1.1828676619047066e-26	5.717760073336076e6	3.6921178876926688e22	1.7086885815648913	5.160424120802259	0.37995944869685977	0.9993341377257163
0.012373931872823029	1.2136650756822714e-26	5.717760073336076e6	3.6921178876926688e22	1.7086885815648913	5.160424120802259	0.37995944869685977	0.9993341377257163
0.0124247229994899	1.2444013160818603e-26	5.717760073336076e6	3.6921178876926688e22	1.7086885815648913	5.160424120802259	0.37995944869685977	0.9993341377257163
0.012475722607872575	1.2750225137775502e-26	5.717760073336076e6	3.6921178876926688e22	1.7086885815648913	5.160424120802259	0.37995944869685977	0.9993341377257163
0.0125269315537234	1.305473493359339e-26	5.717760073336076e6	3.6921178876926688e22	1.7086885815648913	5.160424120802259	0.37995944869685977	0.9993341377257163
0.012578350696307321	1.335697751085377e-26	5.717760073336076e6	3.6921178876926688e22	1.7086885815648913	5.160424120802259	0.37995944869685977	0.9993341377257163
0.01262998089841629	1.3656392923121256e-26	5.717760073336076e6	3.6921178876926688e22	1.7086885815648913	5.160424120802259	0.37995944869685977	0.9993341377257163
0.01268182302638376	1.396089309238622e-26	5.717760073336076e6	3.6921178876926688e22	1.7086885815648913	5.160424120802259	0.37995944869685977	0.9993341377257163
0.012733877950099204	1.4277199381123916e-26	5.717760073336076e6	3.6921178876926688e22	1.7086885815648913	5.160424120802259	0.37995944869685977	0.9993341377257163
0.012786146543022724	1.4605120646034382e-26	5.717760073336076e6	3.6921178876926688e22	1.7086885815648913	5.160424120802259	0.37995944869685977	0.9993341377257163
0.012838629682199705	1.494445895185324e-26	5.717760073336076e6	3.6921178876926688e22	1.7086885815648913	5.160424120802259	0.37995944869685977	0.9993341377257163
0.012891328248275526	1.5295009444146445e-26	5.717760073336076e6	3.6921178876926688e22	1.7086885815648913	5.160424120802259	0.37995944869685977	0.9993341377257163
0.01294424312551034	1.565656022014907e-26	5.717760073336076e6	3.6921178876926688e22	1.7086885815648913	5.160424120802259	0.37995944869685977	0.9993341377257163
0.012997375201793912	1.6028892197619996e-26	5.717760073336076e6	3.6921178876926688e22	1.7086885815648913	5.160424120802259	0.37995944869685977	0.9993341377257163
0.013050725368660521	1.6411778981685264e-26	5.717760073336076e6	3.6921178876926688e22	1.7086885815648913	5.160424120802259	0.37995944869685977	0.9993341377257163
0.013104294521303914	1.6804986729641398e-26	5.717760073336076e6	3.6921178876926688e22	1.7086885815648913	5.160424120802259	0.37995944869685977	0.9993341377257163
0.013158083558592324	1.7208274013690516e-26	5.717760073336076e6	3.6921178876926688e22	1.7086885815648913	5.160424120802259	0.37995944869685977	0.9993341377257163
0.013212093383083566	1.7621391681578138e-26	5.717760073336076e6	3.6921178876926688e22	1.7086885815648913	5.160424120802259	0.37995944869685977	0.9993341377257163
0.013266324901040166	1.8044082715104162e-26	5.717760073336076e6	3.6921178876926688e22	1.7086885815648913	5.160424120802259	0.37995944869685977	0.9993341377257163
0.013320779022444574	1.8476082086477647e-26	5.717760073336076e6	3.6921178876926688e22	1.7086885815648913	5.160424120802259	0.37995944869685977	0.9993341377257163
0.013375456661014442	1.8917116612484935e-26	5.717760073336076e6	3.6921178876926688e22	1.7086885815648913	5.160424120802259	0.37995944869685977	0.9993341377257163
0.01343035873421794	1.936690480644076e-26	5.717760073336076e6	3.6921178876926688e22	1.7086885815648913	5.160424120802259	0.37995944869685977	0.9993341377257163
0.013485486163289163	1.9825156727891423e-26	5.717760073336076e6	3.6921178876926688e22	1.7086885815648913	5.160424120802259	0.37995944869685977	0.9993341377257163
0.01354083987324358	2.029157383003847e-26	5.717760073336076e6	3.6921178876926688e22	1.7086885815648913	5.160424120802259	0.37995944869685977	0.9993341377257163
0.013596420792893619	2.0765848804851952e-26	5.717760073336076e6	3.6921178876926688e22	1.7086885815648913	5.160424120802259	0.37995944869685977	0.9993341377257163
0.013652229854864022	2.1247665425837906e-26	5.717760073336076e6	3.6921178876926688e22	1.7086885815648913	5.160424120802259	0.37995944869685977	0.9993341377257163
0.013708267995607837	2.17366983884346e-26	5.717760073336076e6	3.6921178876926688e22	1.7086885815648913	5.160424120802259	0.37995944869685977	0.9993341377257163
0.013764536155421902	2.223261314799527e-26	5.717760073336076e6	3.6921178876926688e22	1.7086885815648913	5.160424120802259	0.37995944869685977	0.9993341377257163
0.013821035278462674	2.2735065755330506e-26	5.717760073336076e6	3.6921178876926688e22	1.7086885815648913	5.160424120802259	0.37995944869685977	0.9993341377257163
0.013877766312762085	2.32437026897741e-26	5.717760073336076e6	3.6921178876926688e22	1.7086885815648913	5.160424120802259	0.37995944869685977	0.9993341377257163
0.013934730210243438	2.375816068973784e-26	5.717760073336076e6	3.6921178876926688e22	1.7086885815648913	5.160424120802259	0.37995944869685977	0.9993341377257163
0.013991927926737384	2.4278066580720787e-26	5.717760073336076e6	3.6921178876926688e22	1.7086885815648913	5.160424120802259	0.37995944869685977	0.9993341377257163
0.014049360421997966	2.4803037100737804e-26	5.717760073336076e6	3.6921178876926688e22	1.7086885815648913	5.160424120802259	0.37995944869685977	0.9993341377257163
0.014107028659718707	2.533267872313102e-26	5.717760073336076e6	3.6921178876926688e22	1.7086885815648913	5.160424120802259	0.37995944869685977	0.9993341377257163
0.014164933607548802	2.586658747672877e-26	5.717760073336076e6	3.6921178876926688e22	1.7086885815648913	5.160424120802259	0.37995944869685977	0.9993341377257163
0.014223076237109337	2.6404348763314474e-26	5.717760073336076e6	3.6921178876926688e22	1.7086885815648913	5.160424120802259	0.37995944869685977	0.9993341377257163
0.014281457524009599	2.694553717236896e-26	5.717760073336076e6	3.6921178876926688e22	1.7086885815648913	5.160424120802259	0.37995944869685977	0.9993341377257163
0.014340078447863452	2.7489716293048e-26	5.717760073336076e6	3.6921178876926688e22	1.7086885815648913	5.160424120802259	0.37995944869685977	0.9993341377257163
0.014398939992305763	2.803643852335706e-26	5.717760073336076e6	3.6921178876926688e22	1.7086885815648913	5.160424120802259	0.37995944869685977	0.9993341377257163
0.014458043145008918	2.858524487648457e-26	5.717760073336076e6	3.6921178876926688e22	1.7086885815648913	5.160424120802259	0.37995944869685977	0.9993341377257163
0.014517388897699384	2.913566478425443e-26	5.717760073336076e6	3.6921178876926688e22	1.7086885815648913	5.160424120802259	0.37995944869685977	0.9993341377257163
0.014576978246174361	2.968721589765805e-26	5.717760073336076e6	3.6921178876926688e22	1.7086885815648913	5.160424120802259	0.37995944869685977	0.9993341377257163
0.014636812190318484	3.0239403884425625e-26	5.717760073336076e6	3.6921178876926688e22	1.7086885815648913	5.160424120802259	0.37995944869685977	0.9993341377257163
0.014696891734120601	3.079172222359567e-26	5.717760073336076e6	3.6921178876926688e22	1.7086885815648913	5.160424120802259	0.37995944869685977	0.9993341377257163
0.014757217885690621	3.134365199704191e-26	5.717760073336076e6	3.6921178876926688e22	1.7086885815648913	5.160424120802259	0.37995944869685977	0.9993341377257163
0.014817791657276428	3.189466167791516e-26	5.717760073336076e6	3.6921178876926688e22	1.7086885815648913	5.160424120802259	0.37995944869685977	0.9993341377257163
0.014878614065280873	3.244420691595806e-26	5.717760073336076e6	3.6921178876926688e22	1.7086885815648913	5.160424120802259	0.37995944869685977	0.9993341377257163
0.014939686130278814	3.2991730319649435e-26	5.717760073336076e6	3.6921178876926688e22	1.7086885815648913	5.160424120802259	0.37995944869685977	0.9993341377257163
0.015001008877034264	3.353666123513498e-26	5.717760073336076e6	3.6921178876926688e22	1.7086885815648913	5.160424120802259	0.37995944869685977	0.9993341377257163
0.015062583334517559	3.4078415521899754e-26	5.717760073336076e6	3.6921178876926688e22	1.7086885815648913	5.160424120802259	0.37995944869685977	0.9993341377257163
0.01512441053592264	3.461639532513814e-26	5.717760073336076e6	3.6921178876926688e22	1.7086885815648913	5.160424120802259	0.37995944869685977	0.9993341377257163
0.01518649151868439	3.5149988844775725e-26	5.717760073336076e6	3.6921178876926688e22	1.7086885815648913	5.160424120802259	0.37995944869685977	0.9993341377257163
0.015248827324496039	3.5678570101097104e-26	5.717760073336076e6	3.6921178876926688e22	1.7086885815648913	5.160424120802259	0.37995944869685977	0.9993341377257163
0.015311418999326637	3.6212358940272936e-26	5.717760073336076e6	3.6921178876926688e22	1.7086885815648913	5.160424120802259	0.37995944869685977	0.9993341377257163
0.015374267593438618	3.676647821471327e-26	5.717760073336076e6	3.6921178876926688e22	1.7086885815648913	5.160424120802259	0.37995944869685977	0.9993341377257163
0.015437374161405407	3.734060392302657e-26	5.717760073336076e6	3.6921178876926688e22	1.7086885815648913	5.160424120802259	0.37995944869685977	0.9993341377257163
0.015500739762129127	3.793427280922962e-26	5.717760073336076e6	3.6921178876926688e22	1.7086885815648913	5.160424120802259	0.37995944869685977	0.9993341377257163
0.015564365458858366	3.8547006682433334e-26	5.717760073336076e6	3.6921178876926688e22	1.7086885815648913	5.160424120802259	0.37995944869685977	0.9993341377257163
0.015628252319206015	3.9178312142643064e-26	5.717760073336076e6	3.6921178876926688e22	1.7086885815648913	5.160424120802259	0.37995944869685977	0.9993341377257163
0.01569240141516718	3.982768030237566e-26	5.717760073336076e6	3.6921178876926688e22	1.7086885815648913	5.160424120802259	0.37995944869685977	0.9993341377257163
0.015756813823137168	4.0494586504034105e-26	5.717760073336076e6	3.6921178876926688e22	1.7086885815648913	5.160424120802259	0.37995944869685977	0.9993341377257163
0.015821490623929565	4.117849003298145e-26	5.717760073336076e6	3.6921178876926688e22	1.7086885815648913	5.160424120802259	0.37995944869685977	0.9993341377257163
0.01588643290279435	4.18788338262527e-26	5.717760073336076e6	3.6921178876926688e22	1.7086885815648913	5.160424120802259	0.37995944869685977	0.9993341377257163
0.015951641749436116	4.259504417684496e-26	5.717760073336076e6	3.6921178876926688e22	1.7086885815648913	5.160424120802259	0.37995944869685977	0.9993341377257163
0.016017118258032353	4.332653043352354e-26	5.717760073336076e6	3.6921178876926688e22	1.7086885815648913	5.160424120802259	0.37995944869685977	0.9993341377257163
0.016082863527251814	4.407268469608193e-26	5.717760073336076e6	3.6921178876926688e22	1.7086885815648913	5.160424120802259	0.37995944869685977	0.9993341377257163
0.016148878660272932	4.483288150599146e-26	5.717760073336076e6	3.6921178876926688e22	1.7086885815648913	5.160424120802259	0.37995944869685977	0.9993341377257163
0.01621516476480235	4.560647753237806e-26	5.717760073336076e6	3.6921178876926688e22	1.7086885815648913	5.160424120802259	0.37995944869685977	0.9993341377257163
0.016281722953093502	4.639281125325938e-26	5.717760073336076e6	3.6921178876926688e22	1.7086885815648913	5.160424120802259	0.37995944869685977	0.9993341377257163
0.016348554341965277	4.7191202631977624e-26	5.717760073336076e6	3.6921178876926688e22	1.7086885815648913	5.160424120802259	0.37995944869685977	0.9993341377257163
0.016415660052820753	4.800095278876066e-26	5.717760073336076e6	3.6921178876926688e22	1.7086885815648913	5.160424120802259	0.37995944869685977	0.9993341377257163
0.01648304121166601	4.8821343667344075e-26	5.717760073336076e6	3.6921178876926688e22	1.7086885815648913	5.160424120802259	0.37995944869685977	0.9993341377257163
