r[m]	M[Msun]	rho[g/cm^3]	P[N/m^2]	n_e[pm^-3]	n_p[pm^-3]	muF_e[MeV]	B
0.009999999999999992	-1.5733231224562478e-39	3.3881636944638485e8	1.1207129501282256e25	101.29829543864501	305.55691072644674	2.3804380615760588	0.9962955790086288
0.01003926357654587	8.534436428771769e-27	3.3881636944638485e8	1.1207129501282256e25	101.29829543864501	305.55691072644674	2.3804380615760588	0.9962955790086288
0.010078681315936068	1.7340713070502632e-26	3.3881636944638485e8	1.1207129501282256e25	101.29829543864501	305.55691072644674	2.3804380615760588	0.9962955790086288
0.010118253823469089	2.6387848575603294e-26	3.3881636944638485e8	1.1207129501282256e25	101.29829543864501	305.55691072644674	2.3804380615760588	0.9962955790086288
0.010157981706819929	3.564408662405877e-26	3.3881636944638485e8	1.1207129501282256e25	101.29829543864501	305.55691072644674	2.3804380615760588	0.9962955790086288
0.010197865576049667	4.50768829983087e-26	3.3881636944638485e8	1.1207129501282256e25	101.29829543864501	305.55691072644674	2.3804380615760588	0.9962955790086288
0.010237906043614648	5.465289247139781e-26	3.3881636944638485e8	1.1207129501282256e25	101.29829543864501	305.55691072644674	2.3804380615760588	0.9962955790086288
0.01027810372437599	6.433795550812758e-26	3.3881636944638485e8	1.1207129501282256e25	101.29829543864501	305.55691072644674	2.3804380615760588	0.9962955790086288
0.010318459235608844	7.409708477659824e-26	3.3881636944638485e8	1.1207129501282256e25	101.29829543864501	305.55691072644674	2.3804380615760588	0.9962955790086288
0.010358973197012131	8.389445146781014e-26	3.3881636944638485e8	1.1207129501282256e25	101.29829543864501	305.55691072644674	2.3804380615760588	0.9962955790086288
0.010399646230717891	9.369337142058501e-26	3.3881636944638485e8	1.1207129501282256e25	101.29829543864501	305.55691072644674	2.3804380615760588	0.9962955790086288
0.010440478961300877	1.034562910493868e-25	3.3881636944638485e8	1.1207129501282256e25	101.29829543864501	305.55691072644674	2.3804380615760588	0.9962955790086288
0.010481472015788189	1.1314676979856198e-25	3.3881636944638485e8	1.1207129501282256e25	101.29829543864501	305.55691072644674	2.3804380615760588	0.9962955790086288
0.010522626023668727	1.2299356855051974e-25	3.3881636944638485e8	1.1207129501282256e25	101.29829543864501	305.55691072644674	2.3804380615760588	0.9962955790086288
0.010563941616903126	1.3314745044926803e-25	3.3881636944638485e8	1.1207129501282256e25	101.29829543864501	305.55691072644674	2.3804380615760588	0.9962955790086288
0.010605419429933274	1.4357084724739938e-25	3.3881636944638485e8	1.1207129501282256e25	101.29829543864501	305.55691072644674	2.3804380615760588	0.9962955790086288
0.010647060099692109	1.542252546206166e-25	3.3881636944638485e8	1.1207129501282256e25	101.29829543864501	305.55691072644674	2.3804380615760588	0.9962955790086288
0.010688864265613439	1.6507121657031722e-25	3.3881636944638485e8	1.1207129501282256e25	101.29829543864501	305.55691072644674	2.3804380615760588	0.9962955790086288
0.010730832569641581	1.7606830960346436e-25	3.3881636944638485e8	1.1207129501282256e25	101.29829543864501	305.55691072644674	2.3804380615760588	0.9962955790086288
0.010772965656241496	1.8717512668697592e-25	3.3881636944638485e8	1.1207129501282256e25	101.29829543864501	305.55691072644674	2.3804380615760588	0.9962955790086288
0.010815264172408494	1.9834926097341354e-25	3.3881636944638485e8	1.1207129501282256e25	101.29829543864501	305.55691072644674	2.3804380615760588	0.9962955790086288
0.010857728767678265	2.095472892951392e-25	3.3881636944638485e8	1.1207129501282256e25	101.29829543864501	305.55691072644674	2.3804380615760588	0.9962955790086288
0.010900360094136677	2.2072475542375057e-25	3.3881636944638485e8	1.1207129501282256e25	101.29829543864501	305.55691072644674	2.3804380615760588	0.9962955790086288
0.010943158806430056	2.3183615309187255e-25	3.3881636944638485e8	1.1207129501282256e25	101.29829543864501	305.55691072644674	2.3804380615760588	0.9962955790086288
0.010986125561775055	2.429731186818082e-25	3.3881636944638485e8	1.1207129501282256e25	101.29829543864501	305.55691072644674	2.3804380615760588	0.9962955790086288
0.011029261019968796	2.544786599005055e-25	3.3881636944638485e8	1.1207129501282256e25	101.29829543864501	305.55691072644674	2.3804380615760588	0.9962955790086288
0.011072565843399046	2.663532126108721e-25	3.3881636944638485e8	1.1207129501282256e25	101.29829543864501	305.55691072644674	2.3804380615760588	0.9962955790086288
0.011116040697054205	2.7857565964785195e-25	3.3881636944638485e8	1.1207129501282256e25	101.29829543864501	305.55691072644674	2.3804380615760588	0.9962955790086288
0.011159686248533794	2.911243263973908e-25	3.3881636944638485e8	1.1207129501282256e25	101.29829543864501	305.55691072644674	2.3804380615760588	0.9962955790086288
0.011203503168058527	3.039769713619978e-25	3.3881636944638485e8	1.1207129501282256e25	101.29829543864501	305.55691072644674	2.3804380615760588	0.9962955790086288
0.011247492128480679	3.171107765907984e-25	3.3881636944638485e8	1.1207129501282256e25	101.29829543864501	305.55691072644674	2.3804380615760588	0.9962955790086288
0.011291653805294259	3.305023379721311e-25	3.3881636944638485e8	1.1207129501282256e25	101.29829543864501	305.55691072644674	2.3804380615760588	0.9962955790086288
0.011335988876645633	3.4412765538706766e-25	3.3881636944638485e8	1.1207129501282256e25	101.29829543864501	305.55691072644674	2.3804380615760588	0.9962955790086288
0.011380498023343774	3.5796212272176206e-25	3.3881636944638485e8	1.1207129501282256e25	101.29829543864501	305.55691072644674	2.3804380615760588	0.9962955790086288
0.011425181928870754	3.7198051773694106e-25	3.3881636944638485e8	1.1207129501282256e25	101.29829543864501	305.55691072644674	2.3804380615760588	0.9962955790086288
0.011470041279392282	3.8615699179259387e-25	3.3881636944638485e8	1.1207129501282256e25	101.29829543864501	305.55691072644674	2.3804380615760588	0.9962955790086288
0.011515076763768065	4.004650594258635e-25	3.3881636944638485e8	1.1207129501282256e25	101.29829543864501	305.55691072644674	2.3804380615760588	0.9962955790086288
0.011560289073562654	4.1487758778042225e-25	3.3881636944638485e8	1.1207129501282256e25	101.29829543864501	305.55691072644674	2.3804380615760588	0.9962955790086288
0.011605678903055886	4.293667858850705e-25	3.3881636944638485e8	1.1207129501282256e25	101.29829543864501	305.55691072644674	2.3804380615760588	0.9962955790086288
0.011651246949253638	4.439041937798096e-25	3.3881636944638485e8	1.1207129501282256e25	101.29829543864501	305.55691072644674	2.3804380615760588	0.9962955790086288
0.011696993911898336	4.584606714871881e-25	3.3881636944638485e8	1.1207129501282256e25	101.29829543864501	305.55691072644674	2.3804380615760588	0.9962955790086288
0.011742920493479986	4.730063878271295e-25	3.3881636944638485e8	1.1207129501282256e25	101.29829543864501	305.55691072644674	2.3804380615760588	0.9962955790086288
0.01178902739924678	4.8751080907286875e-25	3.3881636944638485e8	1.1207129501282256e25	101.29829543864501	305.55691072644674	2.3804380615760588	0.9962955790086288
0.011835315337215959	5.019426874461327e-25	3.3881636944638485e8	1.1207129501282256e25	101.29829543864501	305.55691072644674	2.3804380615760588	0.9962955790086288
0.011881785018184748	5.162700494493758e-25	3.3881636944638485e8	1.1207129501282256e25	101.29829543864501	305.55691072644674	2.3804380615760588	0.9962955790086288
0.011928437155741066	5.305098278021109e-25	3.3881636944638485e8	1.1207129501282256e25	101.29829543864501	305.55691072644674	2.3804380615760588	0.9962955790086288
0.011975272466274783	5.451281007647371e-25	3.3881636944638485e8	1.1207129501282256e25	101.29829543864501	305.55691072644674	2.3804380615760588	0.9962955790086288
0.012022291668988517	5.602242416679143e-25	3.3881636944638485e8	1.1207129501282256e25	101.29829543864501	305.55691072644674	2.3804380615760588	0.9962955790086288
0.01206949548590874	5.75768602668704e-25	3.3881636944638485e8	1.1207129501282256e25	101.29829543864501	305.55691072644674	2.3804380615760588	0.9962955790086288
0.012116884641896903	5.917307595731877e-25	3.3881636944638485e8	1.1207129501282256e25	101.29829543864501	305.55691072644674	2.3804380615760588	0.9962955790086288
0.012164459864660375	6.080794987246924e-25	3.3881636944638485e8	1.1207129501282256e25	101.29829543864501	305.55691072644674	2.3804380615760588	0.9962955790086288
0.012212221884763912	6.247828037039216e-25	3.3881636944638485e8	1.1207129501282256e25	101.29829543864501	305.55691072644674	2.3804380615760588	0.9962955790086288
0.012260171435640682	6.4180784183815965e-25	3.3881636944638485e8	1.1207129501282256e25	101.29829543864501	305.55691072644674	2.3804380615760588	0.9962955790086288
0.01230830925360362	6.591209505172851e-25	3.3881636944638485e8	1.1207129501282256e25	101.29829543864501	305.55691072644674	2.3804380615760588	0.9962955790086288
0.012356636077856543	6.766876233138356e-25	3.3881636944638485e8	1.1207129501282256e25	101.29829543864501	305.55691072644674	2.3804380615760588	0.9962955790086288
0.012405152650505794	6.944724959048102e-25	3.3881636944638485e8	1.1207129501282256e25	101.29829543864501	305.55691072644674	2.3804380615760588	0.9962955790086288
0.01245385971657144	7.124393317922191e-25	3.3881636944638485e8	1.1207129501282256e25	101.29829543864501	305.55691072644674	2.3804380615760588	0.9962955790086288
0.012502758023998766	7.30551007820008e-25	3.3881636944638485e8	1.1207129501282256e25	101.29829543864501	305.55691072644674	2.3804380615760588	0.9962955790086288
0.012551848323669805	7.487694994845585e-25	3.3881636944638485e8	1.1207129501282256e25	101.29829543864501	305.55691072644674	2.3804380615760588	0.9962955790086288
0.012601131369414674	7.670558660359506e-25	3.3881636944638485e8	1.1207129501282256e25	101.29829543864501	305.55691072644674	2.3804380615760588	0.9962955790086288
0.012650607918023445	7.853702353675083e-25	3.3881636944638485e8	1.1207129501282256e25	101.29829543864501	305.55691072644674	2.3804380615760588	0.9962955790086288
0.012700278729257566	8.036717886904524e-25	3.3881636944638485e8	1.1207129501282256e25	101.29829543864501	305.55691072644674	2.3804380615760588	0.9962955790086288
0.012750144565861642	8.219187449911411e-25	3.3881636944638485e8	1.1207129501282256e25	101.29829543864501	305.55691072644674	2.3804380615760588	0.9962955790086288
0.012800206193574916	8.400683452677763e-25	3.3881636944638485e8	1.1207129501282256e25	101.29829543864501	305.55691072644674	2.3804380615760588	0.9962955790086288
0.012850464381143362	8.580768365440179e-25	3.3881636944638485e8	1.1207129501282256e25	101.29829543864501	305.55691072644674	2.3804380615760588	0.9962955790086288
0.012900919900331275	8.760138154077851e-25	3.3881636944638485e8	1.1207129501282256e25	101.29829543864501	305.55691072644674	2.3804380615760588	0.9962955790086288
0.012951573525933168	8.941933822255218e-25	3.3881636944638485e8	1.1207129501282256e25	101.29829543864501	305.55691072644674	2.3804380615760588	0.9962955790086288
0.013002426035785726	9.126392661446447e-25	3.3881636944638485e8	1.1207129501282256e25	101.29829543864501	305.55691072644674	2.3804380615760588	0.9962955790086288
0.013053478210779549	9.31354046616157e-25	3.3881636944638485e8	1.1207129501282256e25	101.29829543864501	305.55691072644674	2.3804380615760588	0.9962955790086288
0.01310473083487144	9.503403252870565e-25	3.3881636944638485e8	1.1207129501282256e25	101.29829543864501	305.55691072644674	2.3804380615760588	0.9962955790086288
0.013156184695096253	9.696007261823783e-25	3.3881636944638485e8	1.1207129501282256e25	101.29829543864501	305.55691072644674	2.3804380615760588	0.9962955790086288
0.013207840581579018	9.8913789588877e-25	3.3881636944638485e8	1.1207129501282256e25	101.29829543864501	305.55691072644674	2.3804380615760588	0.9962955790086288
0.013259699287547133	1.0089545037395544e-24	3.3881636944638485e8	1.1207129501282256e25	101.29829543864501	305.55691072644674	2.3804380615760588	0.9962955790086288
0.013311761609342328	1.0290532420011635e-24	3.3881636944638485e8	1.1207129501282256e25	101.29829543864501	305.55691072644674	2.3804380615760588	0.9962955790086288
0.013364028346433222	1.0494368260612947e-24	3.3881636944638485e8	1.1207129501282256e25	101.29829543864501	305.55691072644674	2.3804380615760588	0.9962955790086288
0.01341650030142737	1.0701079946183505e-24	3.3881636944638485e8	1.1207129501282256e25	101.29829543864501	305.55691072644674	2.3804380615760588	0.9962955790086288
0.013469178280083717	1.0910695098725359e-24	3.3881636944638485e8	1.1207129501282256e25	101.29829543864501	305.55691072644674	2.3804380615760588	0.9962955790086288
0.013522063091324733	1.1123241577183532e-24	3.3881636944638485e8	1.1207129501282256e25	101.29829543864501	305.55691072644674	2.3804380615760588	0.9962955790086288
0.013575155547249177	1.1338747479388654e-24	3.3881636944638485e8	1.1207129501282256e25	101.29829543864501	305.55691072644674	2.3804380615760588	0.9962955790086288
0.013628456463144343	1.1557241144012954e-24	3.3881636944638485e8	1.1207129501282256e25	101.29829543864501	305.55691072644674	2.3804380615760588	0.9962955790086288
0.013681966657498629	1.177875115254304e-24	3.3881636944638485e8	1.1207129501282256e25	101.29829543864501	305.55691072644674	2.3804380615760588	0.9962955790086288
0.013735686952014171	1.2003306331268571e-24	3.3881636944638485e8	1.1207129501282256e25	101.29829543864501	305.55691072644674	2.3804380615760588	0.9962955790086288
0.013789618171619236	1.2230935753285652e-24	3.3881636944638485e8	1.1207129501282256e25	101.29829543864501	305.55691072644674	2.3804380615760588	0.9962955790086288
0.01384376114448122	1.2461668740518657e-24	3.3881636944638485e8	1.1207129501282256e25	101.29829543864501	305.55691072644674	2.3804380615760588	0.9962955790086288
0.013898116702019141	1.269553486575595e-24	3.3881636944638485e8	1.1207129501282256e25	101.29829543864501	305.55691072644674	2.3804380615760588	0.9962955790086288
0.013952685678916528	1.2932563954703342e-24	3.3881636944638485e8	1.1207129501282256e25	101.29829543864501	305.55691072644674	2.3804380615760588	0.9962955790086288
0.014007468913134001	1.3172786088052494e-24	3.3881636944638485e8	1.1207129501282256e25	101.29829543864501	305.55691072644674	2.3804380615760588	0.9962955790086288
0.014062467245922491	1.3416231603568535e-24	3.3881636944638485e8	1.1207129501282256e25	101.29829543864501	305.55691072644674	2.3804380615760588	0.9962955790086288
0.014117681521835911	1.3662931098191625e-24	3.3881636944638485e8	1.1207129501282256e25	101.29829543864501	305.55691072644674	2.3804380615760588	0.9962955790086288
0.014173112588744208	1.3912915430157062e-24	3.3881636944638485e8	1.1207129501282256e25	101.29829543864501	305.55691072644674	2.3804380615760588	0.9962955790086288
0.014228761297846419	1.4166215721131971e-24	3.3881636944638485e8	1.1207129501282256e25	101.29829543864501	305.55691072644674	2.3804380615760588	0.9962955790086288
0.01428462850368352	1.4422863358368048e-24	3.3881636944638485e8	1.1207129501282256e25	101.29829543864501	305.55691072644674	2.3804380615760588	0.9962955790086288
0.014340715064151906	1.4682889996874197e-24	3.3881636944638485e8	1.1207129501282256e25	101.29829543864501	305.55691072644674	2.3804380615760588	0.9962955790086288
0.014397021840516304	1.4946327561603733e-24	3.3881636944638485e8	1.1207129501282256e25	101.29829543864501	305.55691072644674	2.3804380615760588	0.9962955790086288
0.014453549697423084	1.5213208249660741e-24	3.3881636944638485e8	1.1207129501282256e25	101.29829543864501	305.55691072644674	2.3804380615760588	0.9962955790086288
0.01451029950291359	1.548356453252388e-24	3.3881636944638485e8	1.1207129501282256e25	101.29829543864501	305.55691072644674	2.3804380615760588	0.9962955790086288
0.01456727212843722	1.5757429158286702e-24	3.3881636944638485e8	1.1207129501282256e25	101.29829543864501	305.55691072644674	2.3804380615760588	0.9962955790086288
0.014624468448865176	1.6034835153918745e-24	3.3881636944638485e8	1.1207129501282256e25	101.29829543864501	305.55691072644674	2.3804380615760588	0.9962955790086288
0.014681889342503657	1.6315815827541981e-24	3.3881636944638485e8	1.1207129501282256e25	101.29829543864501	305.55691072644674	2.3804380615760588	0.9962955790086288
0.014739535691107471	1.660040477072703e-24	3.3881636944638485e8	1.1207129501282256e25	101.29829543864501	305.55691072644674	2.3804380615760588	0.9962955790086288
0.014797408379893325	1.6888635860806142e-24	3.3881636944638485e8	1.1207129501282256e25	101.29829543864501	305.55691072644674	2.3804380615760588	0.9962955790086288
0.014855508297553782	1.718054326320766e-24	3.3881636944638485e8	1.1207129501282256e25	101.29829543864501	305.55691072644674	2.3804380615760588	0.9962955790086288
0.01491383633627068	1.7476161433806294e-24	3.3881636944638485e8	1.1207129501282256e25	101.29829543864501	305.55691072644674	2.3804380615760588	0.9962955790086288
0.014972393391728867	1.7775525121293393e-24	3.3881636944638485e8	1.1207129501282256e25	101.29829543864501	305.55691072644674	2.3804380615760588	0.9962955790086288
0.015031180363130045	1.8078669369566654e-24	3.3881636944638485e8	1.1207129501282256e25	101.29829543864501	305.55691072644674	2.3804380615760588	0.9962955790086288
0.015090198153206315	1.8385629520137033e-24	3.3881636944638485e8	1.1207129501282256e25	101.29829543864501	305.55691072644674	2.3804380615760588	0.9962955790086288
0.015149447668234407	1.8696441214558252e-24	3.3881636944638485e8	1.1207129501282256e25	101.29829543864501	305.55691072644674	2.3804380615760588	0.9962955790086288
0.015208929818049357	1.9011140396872632e-24	3.3881636944638485e8	1.1207129501282256e25	101.29829543864501	305.55691072644674	2.3804380615760588	0.9962955790086288
0.01526864551605861	1.9329763316078326e-24	3.3881636944638485e8	1.1207129501282256e25	101.29829543864501	305.55691072644674	2.3804380615760588	0.9962955790086288
0.015328595679255777	1.9652346528614326e-24	3.3881636944638485e8	1.1207129501282256e25	101.29829543864501	305.55691072644674	2.3804380615760588	0.9962955790086288
0.015388781228235107	1.9978926900868778e-24	3.3881636944638485e8	1.1207129501282256e25	101.29829543864501	305.55691072644674	2.3804380615760588	0.9962955790086288
0.01544920308720537	2.030954161170398e-24	3.3881636944638485e8	1.1207129501282256e25	101.29829543864501	305.55691072644674	2.3804380615760588	0.9962955790086288
0.015509862184004101	2.0644228155003255e-24	3.3881636944638485e8	1.1207129501282256e25	101.29829543864501	305.55691072644674	2.3804380615760588	0.9962955790086288
0.015570759450111934	2.0983024342238288e-24	3.3881636944638485e8	1.1207129501282256e25	101.29829543864501	305.55691072644674	2.3804380615760588	0.9962955790086288
0.01563189582066663	2.132596830505519e-24	3.3881636944638485e8	1.1207129501282256e25	101.29829543864501	305.55691072644674	2.3804380615760588	0.9962955790086288
0.015693272234477827	2.1673098497884724e-24	3.3881636944638485e8	1.1207129501282256e25	101.29829543864501	305.55691072644674	2.3804380615760588	0.9962955790086288
0.015754889634041203	2.202445370057009e-24	3.3881636944638485e8	1.1207129501282256e25	101.29829543864501	305.55691072644674	2.3804380615760588	0.9962955790086288
0.015816748965553008	2.238007302101728e-24	3.3881636944638485e8	1.1207129501282256e25	101.29829543864501	305.55691072644674	2.3804380615760588	0.9962955790086288
0.01587885117892467	2.2739995897866838e-24	3.3881636944638485e8	1.1207129501282256e25	101.29829543864501	305.55691072644674	2.3804380615760588	0.9962955790086288
0.015941197227797105	2.3104262103184933e-24	3.3881636944638485e8	1.1207129501282256e25	101.29829543864501	305.55691072644674	2.3804380615760588	0.9962955790086288
0.016003788069555762	2.3472911745179896e-24	3.3881636944638485e8	1.1207129501282256e25	101.29829543864501	305.55691072644674	2.3804380615760588	0.9962955790086288
0.016066624665345065	2.3845985270936656e-24	3.3881636944638485e8	1.1207129501282256e25	101.29829543864501	305.55691072644674	2.3804380615760588	0.9962955790086288
