r[m]	M[Msun]	rho[g/cm^3]	P[N/m^2]	n_e[pm^-3]	n_p[pm^-3]	muF_e[MeV]	B
0.009999999999999992	-9.681988445884604e-40	2.1078838654098928e8	5.827876631225902e24	62.52030930334591	47.567017933119175	1.9653485650915052	0.9969235360857532
0.010039473822945443	5.338399671941987e-27	2.1078838654098928e8	5.827876631225902e24	62.52030930334591	47.567017933119175	1.9653485650915052	0.9969235360857532
0.010079103464160686	1.08476749795368e-26	2.1078838654098928e8	5.827876631225902e24	62.52030930334591	47.567017933119175	1.9653485650915052	0.9969235360857532
0.010118889538720043	1.650827637792845e-26	2.1078838654098928e8	5.827876631225902e24	62.52030930334591	47.567017933119175	1.9653485650915052	0.9969235360857532
0.010158832664125646	2.230016264222624e-26	2.1078838654098928e8	5.827876631225902e24	62.52030930334591	47.567017933119175	1.9653485650915052	0.9969235360857532
0.010198933460317262	2.820279262165466e-26	2.1078838654098928e8	5.827876631225902e24	62.52030930334591	47.567017933119175	1.9653485650915052	0.9969235360857532
0.010239192549681761	3.4195116875252807e-26	2.1078838654098928e8	5.827876631225902e24	62.52030930334591	47.567017933119175	1.9653485650915052	0.9969235360857532
0.010279610557062816	4.0255569187619185e-26	2.1078838654098928e8	5.827876631225902e24	62.52030930334591	47.567017933119175	1.9653485650915052	0.9969235360857532
0.010320188109770584	4.636205796308152e-26	2.1078838654098928e8	5.827876631225902e24	62.52030930334591	47.567017933119175	1.9653485650915052	0.9969235360857532
0.01036092583759151	5.249195749669367e-26	2.1078838654098928e8	5.827876631225902e24	62.52030930334591	47.567017933119175	1.9653485650915052	0.9969235360857532
0.010401824372797913	5.862209912037162e-26	2.1078838654098928e8	5.827876631225902e24	62.52030930334591	47.567017933119175	1.9653485650915052	0.9969235360857532
0.010442884350158065	6.472876222262524e-26	2.1078838654098928e8	5.827876631225902e24	62.52030930334591	47.567017933119175	1.9653485650915052	0.9969235360857532
0.01048410640694586	7.079029326614841e-26	2.1078838654098928e8	5.827876631225902e24	62.52030930334591	47.567017933119175	1.9653485650915052	0.9969235360857532
0.010525491182950765	7.695977933967478e-26	2.1078838654098928e8	5.827876631225902e24	62.52030930334591	47.567017933119175	1.9653485650915052	0.9969235360857532
0.01056703932048778	8.332134989792586e-26	2.1078838654098928e8	5.827876631225902e24	62.52030930334591	47.567017933119175	1.9653485650915052	0.9969235360857532
0.010608751464407236	8.985126571111705e-26	2.1078838654098928e8	5.827876631225902e24	62.52030930334591	47.567017933119175	1.9653485650915052	0.9969235360857532
0.010650628262105067	9.6525193034687e-26	2.1078838654098928e8	5.827876631225902e24	62.52030930334591	47.567017933119175	1.9653485650915052	0.9969235360857532
0.010692670363532684	1.0331819365074738e-25	2.1078838654098928e8	5.827876631225902e24	62.52030930334591	47.567017933119175	1.9653485650915052	0.9969235360857532
0.010734878421207098	1.1020471476664578e-25	2.1078838654098928e8	5.827876631225902e24	62.52030930334591	47.567017933119175	1.9653485650915052	0.9969235360857532
0.01077725309022111	1.1715857876871823e-25	2.1078838654098928e8	5.827876631225902e24	62.52030930334591	47.567017933119175	1.9653485650915052	0.9969235360857532
0.010819795028253282	1.2415297282925226e-25	2.1078838654098928e8	5.827876631225902e24	62.52030930334591	47.567017933119175	1.9653485650915052	0.9969235360857532
0.010862504895578417	1.311604383648412e-25	2.1078838654098928e8	5.827876631225902e24	62.52030930334591	47.567017933119175	1.9653485650915052	0.9969235360857532
0.010905383355077633	1.3815286034399764e-25	2.1078838654098928e8	5.827876631225902e24	62.52030930334591	47.567017933119175	1.9653485650915052	0.9969235360857532
0.010948431072248695	1.4510145644214442e-25	2.1078838654098928e8	5.827876631225902e24	62.52030930334591	47.567017933119175	1.9653485650915052	0.9969235360857532
0.010991648715216336	1.5208501897535007e-25	2.1078838654098928e8	5.827876631225902e24	62.52030930334591	47.567017933119175	1.9653485650915052	0.9969235360857532
0.011035036954742686	1.5930596874224848e-25	2.1078838654098928e8	5.827876631225902e24	62.52030930334591	47.567017933119175	1.9653485650915052	0.9969235360857532
0.011078596464237488	1.6675791844596129e-25	2.1078838654098928e8	5.827876631225902e24	62.52030930334591	47.567017933119175	1.9653485650915052	0.9969235360857532
0.01112232791976883	1.7442750559560933e-25	2.1078838654098928e8	5.827876631225902e24	62.52030930334591	47.567017933119175	1.9653485650915052	0.9969235360857532
0.01116623200007345	1.823010132876867e-25	2.1078838654098928e8	5.827876631225902e24	62.52030930334591	47.567017933119175	1.9653485650915052	0.9969235360857532
0.011210309386567323	1.9036436417673658e-25	2.1078838654098928e8	5.827876631225902e24	62.52030930334591	47.567017933119175	1.9653485650915052	0.9969235360857532
0.01125456076335628	1.9860311435891952e-25	2.1078838654098928e8	5.827876631225902e24	62.52030930334591	47.567017933119175	1.9653485650915052	0.9969235360857532
0.011298986817246434	2.070024471672706e-25	2.1078838654098928e8	5.827876631225902e24	62.52030930334591	47.567017933119175	1.9653485650915052	0.9969235360857532
0.011343588237755131	2.1554716687759884e-25	2.1078838654098928e8	5.827876631225902e24	62.52030930334591	47.567017933119175	1.9653485650915052	0.9969235360857532
0.011388365717121457	2.242216923236594e-25	2.1078838654098928e8	5.827876631225902e24	62.52030930334591	47.567017933119175	1.9653485650915052	0.9969235360857532
0.011433319950317027	2.330100504205295e-25	2.1078838654098928e8	5.827876631225902e24	62.52030930334591	47.567017933119175	1.9653485650915052	0.9969235360857532
0.011478451635056825	2.4189586959491554e-25	2.1078838654098928e8	5.827876631225902e24	62.52030930334591	47.567017933119175	1.9653485650915052	0.9969235360857532
0.011523761471809842	2.508623731211112e-25	2.1078838654098928e8	5.827876631225902e24	62.52030930334591	47.567017933119175	1.9653485650915052	0.9969235360857532
0.011569250163810225	2.598923723614901e-25	2.1078838654098928e8	5.827876631225902e24	62.52030930334591	47.567017933119175	1.9653485650915052	0.9969235360857532
0.011614918417068014	2.689682599100796e-25	2.1078838654098928e8	5.827876631225902e24	62.52030930334591	47.567017933119175	1.9653485650915052	0.9969235360857532
0.011660766940380134	2.780720026380655e-25	2.1078838654098928e8	5.827876631225902e24	62.52030930334591	47.567017933119175	1.9653485650915052	0.9969235360857532
0.011706796445341406	2.8718513463987657e-25	2.1078838654098928e8	5.827876631225902e24	62.52030930334591	47.567017933119175	1.9653485650915052	0.9969235360857532
0.01175300764635564	2.9628875007854202e-25	2.1078838654098928e8	5.827876631225902e24	62.52030930334591	47.567017933119175	1.9653485650915052	0.9969235360857532
0.011799401260646518	3.0536349592893073e-25	2.1078838654098928e8	5.827876631225902e24	62.52030930334591	47.567017933119175	1.9653485650915052	0.9969235360857532
0.011845978008269028	3.143895646176697e-25	2.1078838654098928e8	5.827876631225902e24	62.52030930334591	47.567017933119175	1.9653485650915052	0.9969235360857532
0.011892738612120441	3.233466865581698e-25	2.1078838654098928e8	5.827876631225902e24	62.52030930334591	47.567017933119175	1.9653485650915052	0.9969235360857532
0.01193968379795158	3.322772319119198e-25	2.1078838654098928e8	5.827876631225902e24	62.52030930334591	47.567017933119175	1.9653485650915052	0.9969235360857532
0.011986814294378128	3.4147975040541324e-25	2.1078838654098928e8	5.827876631225902e24	62.52030930334591	47.567017933119175	1.9653485650915052	0.9969235360857532
0.012034130832891758	3.5097995977379964e-25	2.1078838654098928e8	5.827876631225902e24	62.52030930334591	47.567017933119175	1.9653485650915052	0.9969235360857532
0.012081634147871754	3.607590509882769e-25	2.1078838654098928e8	5.827876631225902e24	62.52030930334591	47.567017933119175	1.9653485650915052	0.9969235360857532
0.012129324976596235	3.7079772052157994e-25	2.1078838654098928e8	5.827876631225902e24	62.52030930334591	47.567017933119175	1.9653485650915052	0.9969235360857532
0.012177204059253635	3.8107616195473822e-25	2.1078838654098928e8	5.827876631225902e24	62.52030930334591	47.567017933119175	1.9653485650915052	0.9969235360857532
0.012225272138954246	3.9157405746269895e-25	2.1078838654098928e8	5.827876631225902e24	62.52030930334591	47.567017933119175	1.9653485650915052	0.9969235360857532
0.012273529961741551	4.022705691771383e-25	2.1078838654098928e8	5.827876631225902e24	62.52030930334591	47.567017933119175	1.9653485650915052	0.9969235360857532
0.012321978276604098	4.1314433042498643e-25	2.1078838654098928e8	5.827876631225902e24	62.52030930334591	47.567017933119175	1.9653485650915052	0.9969235360857532
0.012370617835486935	4.241734368408033e-25	2.1078838654098928e8	5.827876631225902e24	62.52030930334591	47.567017933119175	1.9653485650915052	0.9969235360857532
0.012419449393303321	4.35335437351475e-25	2.1078838654098928e8	5.827876631225902e24	62.52030930334591	47.567017933119175	1.9653485650915052	0.9969235360857532
0.012468473707946445	4.466073250314786e-25	2.1078838654098928e8	5.827876631225902e24	62.52030930334591	47.567017933119175	1.9653485650915052	0.9969235360857532
0.012517691540301247	4.57965527827016e-25	2.1078838654098928e8	5.827876631225902e24	62.52030930334591	47.567017933119175	1.9653485650915052	0.9969235360857532
0.012567103654256008	4.693858991471948e-25	2.1078838654098928e8	5.827876631225902e24	62.52030930334591	47.567017933119175	1.9653485650915052	0.9969235360857532
0.012616710816714533	4.808437083206814e-25	2.1078838654098928e8	5.827876631225902e24	62.52030930334591	47.567017933119175	1.9653485650915052	0.9969235360857532
0.012666513797607828	4.923136309157938e-25	2.1078838654098928e8	5.827876631225902e24	62.52030930334591	47.567017933119175	1.9653485650915052	0.9969235360857532
0.012716513369906117	5.037697389224022e-25	2.1078838654098928e8	5.827876631225902e24	62.52030930334591	47.567017933119175	1.9653485650915052	0.9969235360857532
0.012766710309630882	5.151854907937526e-25	2.1078838654098928e8	5.827876631225902e24	62.52030930334591	47.567017933119175	1.9653485650915052	0.9969235360857532
0.012817105395866706	5.265337213462873e-25	2.1078838654098928e8	5.827876631225902e24	62.52030930334591	47.567017933119175	1.9653485650915052	0.9969235360857532
0.01286769941077367	5.377866315157697e-25	2.1078838654098928e8	5.827876631225902e24	62.52030930334591	47.567017933119175	1.9653485650915052	0.9969235360857532
0.012918493139599288	5.49046138447928e-25	2.1078838654098928e8	5.827876631225902e24	62.52030930334591	47.567017933119175	1.9653485650915052	0.9969235360857532
0.012969487370690745	5.604714687494428e-25	2.1078838654098928e8	5.827876631225902e24	62.52030930334591	47.567017933119175	1.9653485650915052	0.9969235360857532
0.013020682895507136	5.7206491562360415e-25	2.1078838654098928e8	5.827876631225902e24	62.52030930334591	47.567017933119175	1.9653485650915052	0.9969235360857532
0.013072080508631801	5.838281157933525e-25	2.1078838654098928e8	5.827876631225902e24	62.52030930334591	47.567017933119175	1.9653485650915052	0.9969235360857532
0.013123681007784443	5.9576272013994055e-25	2.1078838654098928e8	5.827876631225902e24	62.52030930334591	47.567017933119175	1.9653485650915052	0.9969235360857532
0.01317548519383383	6.0787039381978645e-25	2.1078838654098928e8	5.827876631225902e24	62.52030930334591	47.567017933119175	1.9653485650915052	0.9969235360857532
0.01322749387081001	6.201528163821442e-25	2.1078838654098928e8	5.827876631225902e24	62.52030930334591	47.567017933119175	1.9653485650915052	0.9969235360857532
0.013279707845916852	6.326116818877896e-25	2.1078838654098928e8	5.827876631225902e24	62.52030930334591	47.567017933119175	1.9653485650915052	0.9969235360857532
0.01333212792954461	6.452486990286656e-25	2.1078838654098928e8	5.827876631225902e24	62.52030930334591	47.567017933119175	1.9653485650915052	0.9969235360857532
0.013384754935282305	6.5806559124841795e-25	2.1078838654098928e8	5.827876631225902e24	62.52030930334591	47.567017933119175	1.9653485650915052	0.9969235360857532
0.013437589679930664	6.7106409686404915e-25	2.1078838654098928e8	5.827876631225902e24	62.52030930334591	47.567017933119175	1.9653485650915052	0.9969235360857532
0.013490632983514586	6.842459691884078e-25	2.1078838654098928e8	5.827876631225902e24	62.52030930334591	47.567017933119175	1.9653485650915052	0.9969235360857532
0.013543885669295918	6.976129766537462e-25	2.1078838654098928e8	5.827876631225902e24	62.52030930334591	47.567017933119175	1.9653485650915052	0.9969235360857532
0.013597348563786296	7.111669029362634e-25	2.1078838654098928e8	5.827876631225902e24	62.52030930334591	47.567017933119175	1.9653485650915052	0.9969235360857532
0.013651022496759745	7.2490954708159105e-25	2.1078838654098928e8	5.827876631225902e24	62.52030930334591	47.567017933119175	1.9653485650915052	0.9969235360857532
0.01370490830126589	7.38842723631428e-25	2.1078838654098928e8	5.827876631225902e24	62.52030930334591	47.567017933119175	1.9653485650915052	0.9969235360857532
0.013759006813642673	7.529682627510556e-25	2.1078838654098928e8	5.827876631225902e24	62.52030930334591	47.567017933119175	1.9653485650915052	0.9969235360857532
0.013813318873529372	7.672880103579551e-25	2.1078838654098928e8	5.827876631225902e24	62.52030930334591	47.567017933119175	1.9653485650915052	0.9969235360857532
0.013867845323879649	7.81803828251443e-25	2.1078838654098928e8	5.827876631225902e24	62.52030930334591	47.567017933119175	1.9653485650915052	0.9969235360857532
0.013922587010974678	7.9651759424337e-25	2.1078838654098928e8	5.827876631225902e24	62.52030930334591	47.567017933119175	1.9653485650915052	0.9969235360857532
0.013977544784436063	8.114312022898007e-25	2.1078838654098928e8	5.827876631225902e24	62.52030930334591	47.567017933119175	1.9653485650915052	0.9969235360857532
0.014032719497239358	8.2654656262389805e-25	2.1078838654098928e8	5.827876631225902e24	62.52030930334591	47.567017933119175	1.9653485650915052	0.9969235360857532
0.014088112005727082	8.418656018897418e-25	2.1078838654098928e8	5.827876631225902e24	62.52030930334591	47.567017933119175	1.9653485650915052	0.9969235360857532
0.014143723169622055	8.573902632772765e-25	2.1078838654098928e8	5.827876631225902e24	62.52030930334591	47.567017933119175	1.9653485650915052	0.9969235360857532
0.014199553852040829	8.73122506658387e-25	2.1078838654098928e8	5.827876631225902e24	62.52030930334591	47.567017933119175	1.9653485650915052	0.9969235360857532
0.014255604919506813	8.890643087239451e-25	2.1078838654098928e8	5.827876631225902e24	62.52030930334591	47.567017933119175	1.9653485650915052	0.9969235360857532
0.014311877241964106	9.052176631221585e-25	2.1078838654098928e8	5.827876631225902e24	62.52030930334591	47.567017933119175	1.9653485650915052	0.9969235360857532
0.014368371692790738	9.215845805978538e-25	2.1078838654098928e8	5.827876631225902e24	62.52030930334591	47.567017933119175	1.9653485650915052	0.9969235360857532
0.014425089148812305	9.381670891329689e-25	2.1078838654098928e8	5.827876631225902e24	62.52030930334591	47.567017933119175	1.9653485650915052	0.9969235360857532
0.014482030490315621	9.549672340881767e-25	2.1078838654098928e8	5.827876631225902e24	62.52030930334591	47.567017933119175	1.9653485650915052	0.9969235360857532
0.014539196601062156	9.719870783455613e-25	2.1078838654098928e8	5.827876631225902e24	62.52030930334591	47.567017933119175	1.9653485650915052	0.9969235360857532
0.0145965883683021	9.892287024526296e-25	2.1078838654098928e8	5.827876631225902e24	62.52030930334591	47.567017933119175	1.9653485650915052	0.9969235360857532
0.0146542066827879	1.0066942047672875e-24	2.1078838654098928e8	5.827876631225902e24	62.52030930334591	47.567017933119175	1.9653485650915052	0.9969235360857532
0.01471205243878814	1.0243857016040876e-24	2.1078838654098928e8	5.827876631225902e24	62.52030930334591	47.567017933119175	1.9653485650915052	0.9969235360857532
0.014770126534101433	1.0423053273816375e-24	2.1078838654098928e8	5.827876631225902e24	62.52030930334591	47.567017933119175	1.9653485650915052	0.9969235360857532
0.014828429870070398	1.0604552347712028e-24	2.1078838654098928e8	5.827876631225902e24	62.52030930334591	47.567017933119175	1.9653485650915052	0.9969235360857532
0.014886963351595419	1.0788375948464206e-24	2.1078838654098928e8	5.827876631225902e24	62.52030930334591	47.567017933119175	1.9653485650915052	0.9969235360857532
0.014945727887149046	1.0974545972344032e-24	2.1078838654098928e8	5.827876631225902e24	62.52030930334591	47.567017933119175	1.9653485650915052	0.9969235360857532
0.015004724388789867	1.116308450267885e-24	2.1078838654098928e8	5.827876631225902e24	62.52030930334591	47.567017933119175	1.9653485650915052	0.9969235360857532
0.01506395377217671	1.1354013811386597e-24	2.1078838654098928e8	5.827876631225902e24	62.52030930334591	47.567017933119175	1.9653485650915052	0.9969235360857532
0.015123416956582907	1.1547356360522778e-24	2.1078838654098928e8	5.827876631225902e24	62.52030930334591	47.567017933119175	1.9653485650915052	0.9969235360857532
0.015183114864910347	1.1743134803838834e-24	2.1078838654098928e8	5.827876631225902e24	62.52030930334591	47.567017933119175	1.9653485650915052	0.9969235360857532
0.01524304842370414	1.1941371988355007e-24	2.1078838654098928e8	5.827876631225902e24	62.52030930334591	47.567017933119175	1.9653485650915052	0.9969235360857532
0.015303218563166762	1.2142090955943931e-24	2.1078838654098928e8	5.827876631225902e24	62.52030930334591	47.567017933119175	1.9653485650915052	0.9969235360857532
0.015363626217172563	1.2345314944927947e-24	2.1078838654098928e8	5.827876631225902e24	62.52030930334591	47.567017933119175	1.9653485650915052	0.9969235360857532
0.015424272323282239	1.2551067391688988e-24	2.1078838654098928e8	5.827876631225902e24	62.52030930334591	47.567017933119175	1.9653485650915052	0.9969235360857532
0.015485157822757467	1.2759371932291794e-24	2.1078838654098928e8	5.827876631225902e24	62.52030930334591	47.567017933119175	1.9653485650915052	0.9969235360857532
0.015546283660575259	1.2970252404119023e-24	2.1078838654098928e8	5.827876631225902e24	62.52030930334591	47.567017933119175	1.9653485650915052	0.9969235360857532
0.015607650785442989	1.3183732847521603e-24	2.1078838654098928e8	5.827876631225902e24	62.52030930334591	47.567017933119175	1.9653485650915052	0.9969235360857532
0.01566926014981289	1.3399837507480375e-24	2.1078838654098928e8	5.827876631225902e24	62.52030930334591	47.567017933119175	1.9653485650915052	0.9969235360857532
0.015731112709896886	1.3618590835282057e-24	2.1078838654098928e8	5.827876631225902e24	62.52030930334591	47.567017933119175	1.9653485650915052	0.9969235360857532
0.01579320942568149	1.3840017490208674e-24	2.1078838654098928e8	5.827876631225902e24	62.52030930334591	47.567017933119175	1.9653485650915052	0.9969235360857532
0.015855551260942468	1.4064142341239657e-24	2.1078838654098928e8	5.827876631225902e24	62.52030930334591	47.567017933119175	1.9653485650915052	0.9969235360857532
0.015918139183260165	1.429099046876958e-24	2.1078838654098928e8	5.827876631225902e24	62.52030930334591	47.567017933119175	1.9653485650915052	0.9969235360857532
0.01598097416403427	1.4520587166337736e-24	2.1078838654098928e8	5.827876631225902e24	62.52030930334591	47.567017933119175	1.9653485650915052	0.9969235360857532
0.016044057178498963	1.4752957942372594e-24	2.1078838654098928e8	5.827876631225902e24	62.52030930334591	47.567017933119175	1.9653485650915052	0.9969235360857532
0.016107389205738107	1.498812852195035e-24	2.1078838654098928e8	5.827876631225902e24	62.52030930334591	47.567017933119175	1.9653485650915052	0.9969235360857532
0.016170971228700183	1.5226124848566364e-24	2.1078838654098928e8	5.827876631225902e24	62.52030930334591	47.567017933119175	1.9653485650915052	0.9969235360857532
0.016234804234213956	1.5466973085923389e-24	2.1078838654098928e8	5.827876631225902e24	62.52030930334591	47.567017933119175	1.9653485650915052	0.9969235360857532
