r[m]	M[Msun]	rho[g/cm^3]	P[N/m^2]	n_e[pm^-3]	n_p[pm^-3]	muF_e[MeV]	B
0.01000000000000002	1.4877988911842672e-37	1.1712856494204056e10	1.2812612967762494e27	3471.2004562205148	3511.75737468183	8.74694836852507	0.9875115705449956
0.010037350410166599	2.799000031793106e-25	1.1712856494204056e10	1.2812612967762494e27	3471.2004562205148	3511.75737468183	8.74694836852507	0.9875115705449956
0.01007484032564714	5.652673601575578e-25	1.1712856494204056e10	1.2812612967762494e27	3471.2004562205148	3511.75737468183	8.74694836852507	0.9875115705449956
0.01011247026749971	8.52183550576838e-25	1.1712856494204056e10	1.2812612967762494e27	3471.2004562205148	3511.75737468183	8.74694836852507	0.9875115705449956
0.010150240758728555	1.1409832844058805e-24	1.1712856494204056e10	1.2812612967762494e27	3471.2004562205148	3511.75737468183	8.74694836852507	0.9875115705449956
0.01018815232429136	1.4359175196675539e-24	1.1712856494204056e10	1.2812612967762494e27	3471.2004562205148	3511.75737468183	8.74694836852507	0.9875115705449956
0.010226205491106546	1.733095064943763e-24	1.1712856494204056e10	1.2812612967762494e27	3471.2004562205148	3511.75737468183	8.74694836852507	0.9875115705449956
0.010264400788060601	2.0300978018725895e-24	1.1712856494204056e10	1.2812612967762494e27	3471.2004562205148	3511.75737468183	8.74694836852507	0.9875115705449956
0.010302738746015467	2.33014567116946e-24	1.1712856494204056e10	1.2812612967762494e27	3471.2004562205148	3511.75737468183	8.74694836852507	0.9875115705449956
0.010341219897815744	2.6335799732172575e-24	1.1712856494204056e10	1.2812612967762494e27	3471.2004562205148	3511.75737468183	8.74694836852507	0.9875115705449956
0.010379844778296366	2.9404303133659187e-24	1.1712856494204056e10	1.2812612967762494e27	3471.2004562205148	3511.75737468183	8.74694836852507	0.9875115705449956
0.010418613924289843	3.2507265344479936e-24	1.1712856494204056e10	1.2812612967762494e27	3471.2004562205148	3511.75737468183	8.74694836852507	0.9875115705449956
0.01045752787463379	3.56449871861599e-24	1.1712856494204056e10	1.2812612967762494e27	3471.2004562205148	3511.75737468183	8.74694836852507	0.9875115705449956
0.01049658717017839	3.88178418337612e-24	1.1712856494204056e10	1.2812612967762494e27	3471.2004562205148	3511.75737468183	8.74694836852507	0.9875115705449956
0.010535792353793934	4.2026541553846244e-24	1.1712856494204056e10	1.2812612967762494e27	3471.2004562205148	3511.75737468183	8.74694836852507	0.9875115705449956
0.010575143970378342	4.527146517973253e-24	1.1712856494204056e10	1.2812612967762494e27	3471.2004562205148	3511.75737468183	8.74694836852507	0.9875115705449956
0.010614642566864771	4.8552929416761086e-24	1.1712856494204056e10	1.2812612967762494e27	3471.2004562205148	3511.75737468183	8.74694836852507	0.9875115705449956
0.010654288692229171	5.1871253510838915e-24	1.1712856494204056e10	1.2812612967762494e27	3471.2004562205148	3511.75737468183	8.74694836852507	0.9875115705449956
0.010694082897497962	5.522675926809221e-24	1.1712856494204056e10	1.2812612967762494e27	3471.2004562205148	3511.75737468183	8.74694836852507	0.9875115705449956
0.010734025735755659	5.8619834849949745e-24	1.1712856494204056e10	1.2812612967762494e27	3471.2004562205148	3511.75737468183	8.74694836852507	0.9875115705449956
0.010774117762152566	6.2051232109974334e-24	1.1712856494204056e10	1.2812612967762494e27	3471.2004562205148	3511.75737468183	8.74694836852507	0.9875115705449956
0.010814359533912509	6.5521364244684356e-24	1.1712856494204056e10	1.2812612967762494e27	3471.2004562205148	3511.75737468183	8.74694836852507	0.9875115705449956
0.010854751610340557	6.903056990506316e-24	1.1712856494204056e10	1.2812612967762494e27	3471.2004562205148	3511.75737468183	8.74694836852507	0.9875115705449956
0.010895294552830857	7.257919045868534e-24	1.1712856494204056e10	1.2812612967762494e27	3471.2004562205148	3511.75737468183	8.74694836852507	0.9875115705449956
0.01093598892487425	7.616757001071315e-24	1.1712856494204056e10	1.2812612967762494e27	3471.2004562205148	3511.75737468183	8.74694836852507	0.9875115705449956
0.010976835292066374	7.979608310808202e-24	1.1712856494204056e10	1.2812612967762494e27	3471.2004562205148	3511.75737468183	8.74694836852507	0.9875115705449956
0.011017834222115337	8.346524917176743e-24	1.1712856494204056e10	1.2812612967762494e27	3471.2004562205148	3511.75737468183	8.74694836852507	0.9875115705449956
0.011058986284849677	8.71755426241542e-24	1.1712856494204056e10	1.2812612967762494e27	3471.2004562205148	3511.75737468183	8.74694836852507	0.9875115705449956
0.011100292052226247	9.092743122053633e-24	1.1712856494204056e10	1.2812612967762494e27	3471.2004562205148	3511.75737468183	8.74694836852507	0.9875115705449956
0.011141752098338195	9.47213880392505e-24	1.1712856494204056e10	1.2812612967762494e27	3471.2004562205148	3511.75737468183	8.74694836852507	0.9875115705449956
0.011183366999422921	9.855789154209552e-24	1.1712856494204056e10	1.2812612967762494e27	3471.2004562205148	3511.75737468183	8.74694836852507	0.9875115705449956
0.011225137333870107	1.0243742563543805e-23	1.1712856494204056e10	1.2812612967762494e27	3471.2004562205148	3511.75737468183	8.74694836852507	0.9875115705449956
0.011267063682229728	1.0636047973200757e-23	1.1712856494204056e10	1.2812612967762494e27	3471.2004562205148	3511.75737468183	8.74694836852507	0.9875115705449956
0.011309146627220153	1.1032754881339544e-23	1.1712856494204056e10	1.2812612967762494e27	3471.2004562205148	3511.75737468183	8.74694836852507	0.9875115705449956
0.011351386753736219	1.1433913349325536e-23	1.1712856494204056e10	1.2812612967762494e27	3471.2004562205148	3511.75737468183	8.74694836852507	0.9875115705449956
0.01139378464885737	1.1839574008122473e-23	1.1712856494204056e10	1.2812612967762494e27	3471.2004562205148	3511.75737468183	8.74694836852507	0.9875115705449956
0.01143634090185582	1.2249788064756651e-23	1.1712856494204056e10	1.2812612967762494e27	3471.2004562205148	3511.75737468183	8.74694836852507	0.9875115705449956
0.011479056104204735	1.2664607308854291e-23	1.1712856494204056e10	1.2812612967762494e27	3471.2004562205148	3511.75737468183	8.74694836852507	0.9875115705449956
0.011521930849586503	1.3084084119253543e-23	1.1712856494204056e10	1.2812612967762494e27	3471.2004562205148	3511.75737468183	8.74694836852507	0.9875115705449956
0.011564965733900806	1.3508271470688837e-23	1.1712856494204056e10	1.2812612967762494e27	3471.2004562205148	3511.75737468183	8.74694836852507	0.9875115705449956
0.011608161355273167	1.3937222940555554e-23	1.1712856494204056e10	1.2812612967762494e27	3471.2004562205148	3511.75737468183	8.74694836852507	0.9875115705449956
0.011651518314063098	1.4370992715746846e-23	1.1712856494204056e10	1.2812612967762494e27	3471.2004562205148	3511.75737468183	8.74694836852507	0.9875115705449956
0.011695037212872463	1.4809635599569614e-23	1.1712856494204056e10	1.2812612967762494e27	3471.2004562205148	3511.75737468183	8.74694836852507	0.9875115705449956
0.011738718656553883	1.52532070187391e-23	1.1712856494204056e10	1.2812612967762494e27	3471.2004562205148	3511.75737468183	8.74694836852507	0.9875115705449956
0.011782563252219118	1.5701763030451788e-23	1.1712856494204056e10	1.2812612967762494e27	3471.2004562205148	3511.75737468183	8.74694836852507	0.9875115705449956
0.011826571609247523	1.6155360329539046e-23	1.1712856494204056e10	1.2812612967762494e27	3471.2004562205148	3511.75737468183	8.74694836852507	0.9875115705449956
0.011870744339294505	1.6614056255701254e-23	1.1712856494204056e10	1.2812612967762494e27	3471.2004562205148	3511.75737468183	8.74694836852507	0.9875115705449956
0.01191508205630003	1.7077908800824066e-23	1.1712856494204056e10	1.2812612967762494e27	3471.2004562205148	3511.75737468183	8.74694836852507	0.9875115705449956
0.011959585376497156	1.7546976616377374e-23	1.1712856494204056e10	1.2812612967762494e27	3471.2004562205148	3511.75737468183	8.74694836852507	0.9875115705449956
0.012004254918420595	1.8021319020897916e-23	1.1712856494204056e10	1.2812612967762494e27	3471.2004562205148	3511.75737468183	8.74694836852507	0.9875115705449956
0.012049091302915312	1.8500996007556798e-23	1.1712856494204056e10	1.2812612967762494e27	3471.2004562205148	3511.75737468183	8.74694836852507	0.9875115705449956
0.012094095153145157	1.8986068251812442e-23	1.1712856494204056e10	1.2812612967762494e27	3471.2004562205148	3511.75737468183	8.74694836852507	0.9875115705449956
0.012139267094601567	1.947659711915063e-23	1.1712856494204056e10	1.2812612967762494e27	3471.2004562205148	3511.75737468183	8.74694836852507	0.9875115705449956
0.01218460775511207	1.997264467290969e-23	1.1712856494204056e10	1.2812612967762494e27	3471.2004562205148	3511.75737468183	8.74694836852507	0.9875115705449956
0.012230117764849302	2.0474273682199318e-23	1.1712856494204056e10	1.2812612967762494e27	3471.2004562205148	3511.75737468183	8.74694836852507	0.9875115705449956
0.01227579775633957	2.098154762990382e-23	1.1712856494204056e10	1.2812612967762494e27	3471.2004562205148	3511.75737468183	8.74694836852507	0.9875115705449956
0.012321648364471697	2.1494530720778552e-23	1.1712856494204052e10	1.2812612967762489e27	3471.200456220513	3511.7573746818284	8.746948368525068	0.9875115705449956
0.012367670226505834	2.2013287889637347e-23	1.1712856494204052e10	1.2812612967762489e27	3471.200456220513	3511.7573746818284	8.746948368525068	0.9875115705449956
0.012413863982082331	2.253788480963266e-23	1.1712856494204052e10	1.2812612967762489e27	3471.200456220513	3511.7573746818284	8.746948368525068	0.9875115705449956
0.012460230273230623	2.3068387900629415e-23	1.1712856494204052e10	1.2812612967762489e27	3471.200456220513	3511.7573746818284	8.746948368525068	0.9875115705449956
0.01250676974437814	2.3604864337673332e-23	1.1712856494204052e10	1.2812612967762489e27	3471.200456220513	3511.7573746818284	8.746948368525068	0.9875115705449956
0.01255348304235929	2.4147382059555696e-23	1.1712856494204052e10	1.2812612967762489e27	3471.200456220513	3511.7573746818284	8.746948368525068	0.9875115705449956
0.01260037081642442	2.4696009777474063e-23	1.1712856494204052e10	1.2812612967762489e27	3471.200456220513	3511.7573746818284	8.746948368525068	0.9875115705449956
0.012647433718248866	2.525081698379196e-23	1.1712856494204052e10	1.2812612967762489e27	3471.200456220513	3511.7573746818284	8.746948368525068	0.9875115705449956
0.012694672401942013	2.5811873960897117e-23	1.1712856494204052e10	1.2812612967762489e27	3471.200456220513	3511.7573746818284	8.746948368525068	0.9875115705449956
0.012742087524056301	2.637925179015908e-23	1.1712856494204052e10	1.2812612967762489e27	3471.200456220513	3511.7573746818284	8.746948368525068	0.9875115705449956
0.012789679743596499	2.6953022360990675e-23	1.1712856494204052e10	1.2812612967762489e27	3471.200456220513	3511.7573746818284	8.746948368525068	0.9875115705449956
0.012837449722028748	2.753325838000916e-23	1.1712856494204052e10	1.2812612967762489e27	3471.200456220513	3511.7573746818284	8.746948368525068	0.9875115705449956
0.01288539812328981	2.8120033380302727e-23	1.1712856494204052e10	1.2812612967762489e27	3471.200456220513	3511.7573746818284	8.746948368525068	0.9875115705449956
0.012933525613796265	2.871342173080103e-23	1.1712856494204052e10	1.2812612967762489e27	3471.200456220513	3511.7573746818284	8.746948368525068	0.9875115705449956
0.012981832862453788	2.931349864575206e-23	1.1712856494204052e10	1.2812612967762489e27	3471.200456220513	3511.7573746818284	8.746948368525068	0.9875115705449956
0.013030320540666478	2.9920340194306683e-23	1.1712856494204052e10	1.2812612967762489e27	3471.200456220513	3511.7573746818284	8.746948368525068	0.9875115705449956
0.013078989322346067	3.053402331020929e-23	1.1712856494204052e10	1.2812612967762489e27	3471.200456220513	3511.7573746818284	8.746948368525068	0.9875115705449956
0.013127839883921463	3.115462580160225e-23	1.1712856494204052e10	1.2812612967762489e27	3471.200456220513	3511.7573746818284	8.746948368525068	0.9875115705449956
0.013176872904348026	3.178222636093702e-23	1.1712856494204052e10	1.2812612967762489e27	3471.200456220513	3511.7573746818284	8.746948368525068	0.9875115705449956
0.013226089065117054	3.241690457499996e-23	1.1712856494204052e10	1.2812612967762489e27	3471.200456220513	3511.7573746818284	8.746948368525068	0.9875115705449956
0.013275489050265236	3.3058740935050304e-23	1.1712856494204052e10	1.2812612967762489e27	3471.200456220513	3511.7573746818284	8.746948368525068	0.9875115705449956
0.01332507354638417	3.3707816847073424e-23	1.1712856494204052e10	1.2812612967762489e27	3471.200456220513	3511.7573746818284	8.746948368525068	0.9875115705449956
0.013374843242629898	3.4364208163244536e-23	1.1712856494204052e10	1.2812612967762489e27	3471.200456220513	3511.7573746818284	8.746948368525068	0.9875115705449956
0.013424798830732517	3.502798253227859e-23	1.1712856494204052e10	1.2812612967762489e27	3471.200456220513	3511.7573746818284	8.746948368525068	0.9875115705449956
0.013474941005005686	3.569922238939679e-23	1.1712856494204052e10	1.2812612967762489e27	3471.200456220513	3511.7573746818284	8.746948368525068	0.9875115705449956
0.013525270462356428	3.6378011699143634e-23	1.1712856494204052e10	1.2812612967762489e27	3471.200456220513	3511.7573746818284	8.746948368525068	0.9875115705449956
0.013575787902294719	3.706443537041475e-23	1.1712856494204052e10	1.2812612967762489e27	3471.200456220513	3511.7573746818284	8.746948368525068	0.9875115705449956
0.01362649402694324	3.775857926707855e-23	1.1712856494204052e10	1.2812612967762489e27	3471.200456220513	3511.7573746818284	8.746948368525068	0.9875115705449956
0.013677389541047117	3.8460530218716395e-23	1.1712856494204052e10	1.2812612967762489e27	3471.200456220513	3511.7573746818284	8.746948368525068	0.9875115705449956
0.013728475151983735	3.9170376031484465e-23	1.1712856494204052e10	1.2812612967762489e27	3471.200456220513	3511.7573746818284	8.746948368525068	0.9875115705449956
0.013779751569772593	3.988820549909754e-23	1.1712856494204052e10	1.2812612967762489e27	3471.200456220513	3511.7573746818284	8.746948368525068	0.9875115705449956
0.01383121950708505	4.061410841393435e-23	1.1712856494204052e10	1.2812612967762489e27	3471.200456220513	3511.7573746818284	8.746948368525068	0.9875115705449956
0.013882879679254412	4.1348175578272195e-23	1.1712856494204052e10	1.2812612967762489e27	3471.200456220513	3511.7573746818284	8.746948368525068	0.9875115705449956
0.013934732804285753	4.2090498815643614e-23	1.1712856494204052e10	1.2812612967762489e27	3471.200456220513	3511.7573746818284	8.746948368525068	0.9875115705449956
0.013986779602865929	4.284117098232291e-23	1.1712856494204052e10	1.2812612967762489e27	3471.200456220513	3511.7573746818284	8.746948368525068	0.9875115705449956
0.014039020798373587	4.360028597894128e-23	1.1712856494204052e10	1.2812612967762489e27	3471.200456220513	3511.7573746818284	8.746948368525068	0.9875115705449956
0.014091457116889226	4.4367938762232923e-23	1.1712856494204052e10	1.2812612967762489e27	3471.200456220513	3511.7573746818284	8.746948368525068	0.9875115705449956
0.01414408928720531	4.5144225356913336e-23	1.1712856494204052e10	1.2812612967762489e27	3471.200456220513	3511.7573746818284	8.746948368525068	0.9875115705449956
0.014196918040836295	4.5929242867689393e-23	1.1712856494204052e10	1.2812612967762489e27	3471.200456220513	3511.7573746818284	8.746948368525068	0.9875115705449956
0.014249944112028949	4.672308949140832e-23	1.1712856494204052e10	1.2812612967762489e27	3471.200456220513	3511.7573746818284	8.746948368525068	0.9875115705449956
0.014303168237772461	4.7525864529339576e-23	1.1712856494204052e10	1.2812612967762489e27	3471.200456220513	3511.7573746818284	8.746948368525068	0.9875115705449956
0.0143565911578087	4.833766839959668e-23	1.1712856494204052e10	1.2812612967762489e27	3471.200456220513	3511.7573746818284	8.746948368525068	0.9875115705449956
0.014410213614642503	4.915860264969826e-23	1.1712856494204052e10	1.2812612967762489e27	3471.200456220513	3511.7573746818284	8.746948368525068	0.9875115705449956
0.014464036353551996	4.998876996927071e-23	1.1712856494204052e10	1.2812612967762489e27	3471.200456220513	3511.7573746818284	8.746948368525068	0.9875115705449956
0.014518060122598944	5.082827420289334e-23	1.1712856494204052e10	1.2812612967762489e27	3471.200456220513	3511.7573746818284	8.746948368525068	0.9875115705449956
0.014572285672639185	5.167722036308869e-23	1.1712856494204052e10	1.2812612967762489e27	3471.200456220513	3511.7573746818284	8.746948368525068	0.9875115705449956
0.01462671375733295	5.2535714643456604e-23	1.1712856494204052e10	1.2812612967762489e27	3471.200456220513	3511.7573746818284	8.746948368525068	0.9875115705449956
0.014681345133155502	5.340386443196051e-23	1.1712856494204052e10	1.2812612967762489e27	3471.200456220513	3511.7573746818284	8.746948368525068	0.9875115705449956
0.01473618055940755	5.428177832435867e-23	1.1712856494204044e10	1.281261296776248e27	3471.2004562205116	3511.7573746818275	8.746948368525066	0.9875115705449956
0.014791220798225814	5.516956613778882e-23	1.1712856494204044e10	1.281261296776248e27	3471.2004562205116	3511.7573746818275	8.746948368525066	0.9875115705449956
0.01484646661459363	5.606733892450491e-23	1.1712856494204044e10	1.281261296776248e27	3471.2004562205116	3511.7573746818275	8.746948368525066	0.9875115705449956
0.01490191877635158	5.69752089857686e-23	1.1712856494204044e10	1.281261296776248e27	3471.2004562205116	3511.7573746818275	8.746948368525066	0.9875115705449956
0.01495757805420819	5.789328988589731e-23	1.1712856494204044e10	1.281261296776248e27	3471.2004562205116	3511.7573746818275	8.746948368525066	0.9875115705449956
0.015013445221750518	5.882169646646789e-23	1.1712856494204044e10	1.281261296776248e27	3471.2004562205116	3511.7573746818275	8.746948368525066	0.9875115705449956
0.015069521055455105	5.976054486068506e-23	1.1712856494204044e10	1.281261296776248e27	3471.2004562205116	3511.7573746818275	8.746948368525066	0.9875115705449956
0.01512580633469862	6.070995250790609e-23	1.1712856494204044e10	1.281261296776248e27	3471.2004562205116	3511.7573746818275	8.746948368525066	0.9875115705449956
0.015182301841768742	6.167003816833203e-23	1.1712856494204044e10	1.281261296776248e27	3471.2004562205116	3511.7573746818275	8.746948368525066	0.9875115705449956
0.015239008361875028	6.264092193786307e-23	1.1712856494204044e10	1.281261296776248e27	3471.2004562205116	3511.7573746818275	8.746948368525066	0.9875115705449956
0.015295926683159825	6.362272526312114e-23	1.1712856494204044e10	1.281261296776248e27	3471.2004562205116	3511.7573746818275	8.746948368525066	0.9875115705449956
0.015353057596709251	6.461557095664217e-23	1.1712856494204044e10	1.281261296776248e27	3471.2004562205116	3511.7573746818275	8.746948368525066	0.9875115705449956
0.01541040189656407	6.561958321223619e-23	1.1712856494204044e10	1.281261296776248e27	3471.2004562205116	3511.7573746818275	8.746948368525066	0.9875115705449956
0.015467960379730921	6.663488762052625e-23	1.1712856494204044e10	1.281261296776248e27	3471.2004562205116	3511.7573746818275	8.746948368525066	0.9875115705449956
0.015525733846193256	6.766161118465569e-23	1.1712856494204044e10	1.281261296776248e27	3471.2004562205116	3511.7573746818275	8.746948368525066	0.9875115705449956
0.015583723098922501	6.869988233617569e-23	1.1712856494204044e10	1.281261296776248e27	3471.2004562205116	3511.7573746818275	8.746948368525066	0.9875115705449956
0.015641928943889216	6.974983095111061e-23	1.1712856494204044e10	1.281261296776248e27	3471.2004562205116	3511.7573746818275	8.746948368525066	0.9875115705449956
0.01570035219007429	7.081158836620371e-23	1.1712856494204044e10	1.281261296776248e27	3471.2004562205116	3511.7573746818275	8.746948368525066	0.9875115705449956
0.015758993649480194	7.188528739534643e-23	1.1712856494204044e10	1.281261296776248e27	3471.2004562205116	3511.7573746818275	8.746948368525066	0.9875115705449956
0.015817854137142286	7.297106234619192e-23	1.1712856494204044e10	1.281261296776248e27	3471.2004562205116	3511.7573746818275	8.746948368525066	0.9875115705449956
