r[m]	M[Msun]	rho[g/cm^3]	P[N/m^2]	n_e[pm^-3]	n_p[pm^-3]	muF_e[MeV]	B
0.009999999999999988	-2.101125964818707e-41	3.022927415762914e6	1.4003441208491659e22	0.8931467305581102	0.6826064631897723	0.26795922545220824	0.9995297810128818
0.010041251365929017	8.011225753073635e-29	3.022927415762914e6	1.4003441208491659e22	0.8931467305581102	0.6826064631897723	0.26795922545220824	0.9995297810128818
0.010082672899377148	1.6310172831434366e-28	3.022927415762914e6	1.4003441208491659e22	0.8931467305581102	0.6826064631897723	0.26795922545220824	0.9995297810128818
0.010124265302308637	2.48811741120867e-28	3.022927415762914e6	1.4003441208491659e22	0.8931467305581102	0.6826064631897723	0.26795922545220824	0.9995297810128818
0.01016602927958349	3.370812290551599e-28	3.022927415762914e6	1.4003441208491659e22	0.8931467305581102	0.6826064631897723	0.26795922545220824	0.9995297810128818
0.010207965538969223	4.277446511495876e-28	3.022927415762914e6	1.4003441208491659e22	0.8931467305581102	0.6826064631897723	0.26795922545220824	0.9995297810128818
0.010250074791153115	5.206319127721825e-28	3.022927415762914e6	1.4003441208491659e22	0.8931467305581102	0.6826064631897723	0.26795922545220824	0.9995297810128818
0.010292357749754092	6.155682848317948e-28	3.022927415762914e6	1.4003441208491659e22	0.8931467305581102	0.6826064631897723	0.26795922545220824	0.9995297810128818
0.010334815131334852	7.123743217647918e-28	3.022927415762914e6	1.4003441208491659e22	0.8931467305581102	0.6826064631897723	0.26795922545220824	0.9995297810128818
0.010377447655414006	8.108657782858791e-28	3.022927415762914e6	1.4003441208491659e22	0.8931467305581102	0.6826064631897723	0.26795922545220824	0.9995297810128818
0.010420256044478288	9.10853524885885e-28	3.022927415762914e6	1.4003441208491659e22	0.8931467305581102	0.6826064631897723	0.26795922545220824	0.9995297810128818
0.010463241023994785	1.0121434620590015e-27	3.022927415762914e6	1.4003441208491659e22	0.8931467305581102	0.6826064631897723	0.26795922545220824	0.9995297810128818
0.010506403322423271	1.114536433242028e-27	3.022927415762914e6	1.4003441208491659e22	0.8931467305581102	0.6826064631897723	0.26795922545220824	0.9995297810128818
0.010549743671228396	1.2178281364470255e-27	3.022927415762914e6	1.4003441208491659e22	0.8931467305581102	0.6826064631897723	0.26795922545220824	0.9995297810128818
0.010593262804892326	1.3218090345707793e-27	3.022927415762914e6	1.4003441208491659e22	0.8931467305581102	0.6826064631897723	0.26795922545220824	0.9995297810128818
0.010636961460927023	1.4262642643606467e-27	3.022927415762914e6	1.4003441208491659e22	0.8931467305581102	0.6826064631897723	0.26795922545220824	0.9995297810128818
0.010680840379886791	1.5309735440196957e-27	3.022927415762914e6	1.4003441208491659e22	0.8931467305581102	0.6826064631897723	0.26795922545220824	0.9995297810128818
0.010724900305380817	1.6357110794316285e-27	3.022927415762914e6	1.4003441208491659e22	0.8931467305581102	0.6826064631897723	0.26795922545220824	0.9995297810128818
0.01076914198408578	1.740245468986466e-27	3.022927415762914e6	1.4003441208491659e22	0.8931467305581102	0.6826064631897723	0.26795922545220824	0.9995297810128818
0.010813566165758542	1.8443396069877406e-27	3.022927415762914e6	1.4003441208491659e22	0.8931467305581102	0.6826064631897723	0.26795922545220824	0.9995297810128818
0.01085817360324869	1.9477505856208695e-27	3.022927415762914e6	1.4003441208491659e22	0.8931467305581102	0.6826064631897723	0.26795922545220824	0.9995297810128818
0.010902965052511544	2.0502295954644256e-27	3.022927415762914e6	1.4003441208491659e22	0.8931467305581102	0.6826064631897723	0.26795922545220824	0.9995297810128818
0.0109479412726208	2.1540245901454724e-27	3.022927415762914e6	1.4003441208491659e22	0.8931467305581102	0.6826064631897723	0.26795922545220824	0.9995297810128818
0.01099310302578144	2.2615176031882137e-27	3.022927415762914e6	1.4003441208491659e22	0.8931467305581102	0.6826064631897723	0.26795922545220824	0.9995297810128818
0.011038451077342642	2.3724842656446032e-27	3.022927415762914e6	1.4003441208491659e22	0.8931467305581102	0.6826064631897723	0.26795922545220824	0.9995297810128818
0.011083986195810757	2.4866936685500477e-27	3.022927415762914e6	1.4003441208491659e22	0.8931467305581102	0.6826064631897723	0.26795922545220824	0.9995297810128818
0.011129709152862372	2.6039085641865286e-27	3.022927415762914e6	1.4003441208491659e22	0.8931467305581102	0.6826064631897723	0.26795922545220824	0.9995297810128818
0.01117562072335721	2.723885253666637e-27	3.022927415762914e6	1.4003441208491659e22	0.8931467305581102	0.6826064631897723	0.26795922545220824	0.9995297810128818
0.011221721685351535	2.8463734728231896e-27	3.022927415762914e6	1.4003441208491659e22	0.8931467305581102	0.6826064631897723	0.26795922545220824	0.9995297810128818
0.01126801282011115	2.9711162763784605e-27	3.022927415762914e6	1.4003441208491659e22	0.8931467305581102	0.6826064631897723	0.26795922545220824	0.9995297810128818
0.01131449491212469	3.097849920370857e-27	3.022927415762914e6	1.4003441208491659e22	0.8931467305581102	0.6826064631897723	0.26795922545220824	0.9995297810128818
0.011361168749116909	3.226303742814097e-27	3.022927415762914e6	1.4003441208491659e22	0.8931467305581102	0.6826064631897723	0.26795922545220824	0.9995297810128818
0.011408035122062036	3.3562000425643614e-27	3.022927415762914e6	1.4003441208491659e22	0.8931467305581102	0.6826064631897723	0.26795922545220824	0.9995297810128818
0.011455094825197175	3.4872539563705985e-27	3.022927415762914e6	1.4003441208491659e22	0.8931467305581102	0.6826064631897723	0.26795922545220824	0.9995297810128818
0.011502348656035815	3.619173334082795e-27	3.022927415762914e6	1.4003441208491659e22	0.8931467305581102	0.6826064631897723	0.26795922545220824	0.9995297810128818
0.011549797415381155	3.751658611991901e-27	3.022927415762914e6	1.4003441208491659e22	0.8931467305581102	0.6826064631897723	0.26795922545220824	0.9995297810128818
0.011597441907339962	3.884402684277437e-27	3.022927415762914e6	1.4003441208491659e22	0.8931467305581102	0.6826064631897723	0.26795922545220824	0.9995297810128818
0.011645282939335994	4.0170907725338676e-27	3.022927415762914e6	1.4003441208491659e22	0.8931467305581102	0.6826064631897723	0.26795922545220824	0.9995297810128818
0.011693321322123756	4.149400293351233e-27	3.022927415762914e6	1.4003441208491659e22	0.8931467305581102	0.6826064631897723	0.26795922545220824	0.9995297810128818
0.011741557869802221	4.2810007239220625e-27	3.022927415762914e6	1.4003441208491659e22	0.8931467305581102	0.6826064631897723	0.26795922545220824	0.9995297810128818
0.011789993399828629	4.411553465647584e-27	3.022927415762914e6	1.4003441208491659e22	0.8931467305581102	0.6826064631897723	0.26795922545220824	0.9995297810128818
0.011838628733032396	4.542130593123565e-27	3.022927415762914e6	1.4003441208491659e22	0.8931467305581102	0.6826064631897723	0.26795922545220824	0.9995297810128818
0.011887464693628818	4.6773433103332685e-27	3.022927415762914e6	1.4003441208491659e22	0.8931467305581102	0.6826064631897723	0.26795922545220824	0.9995297810128818
0.011936502109233348	4.817462242826826e-27	3.022927415762914e6	1.4003441208491659e22	0.8931467305581102	0.6826064631897723	0.26795922545220824	0.9995297810128818
0.011985741810875408	4.962352298630259e-27	3.022927415762914e6	1.4003441208491659e22	0.8931467305581102	0.6826064631897723	0.26795922545220824	0.9995297810128818
0.012035184633012536	5.111874167377582e-27	3.022927415762914e6	1.4003441208491659e22	0.8931467305581102	0.6826064631897723	0.26795922545220824	0.9995297810128818
0.012084831413544519	5.265884243104505e-27	3.022927415762914e6	1.4003441208491659e22	0.8931467305581102	0.6826064631897723	0.26795922545220824	0.9995297810128818
0.012134682993827594	5.424234545862218e-27	3.022927415762914e6	1.4003441208491659e22	0.8931467305581102	0.6826064631897723	0.26795922545220824	0.9995297810128818
0.012184740218688709	5.586772642134639e-27	3.022927415762914e6	1.4003441208491659e22	0.8931467305581102	0.6826064631897723	0.26795922545220824	0.9995297810128818
0.012235003936439887	5.753341564042576e-27	3.022927415762914e6	1.4003441208491659e22	0.8931467305581102	0.6826064631897723	0.26795922545220824	0.9995297810128818
0.012285474998892406	5.9237797273167776e-27	3.022927415762914e6	1.4003441208491659e22	0.8931467305581102	0.6826064631897723	0.26795922545220824	0.9995297810128818
0.01233615426137153	6.097920848025111e-27	3.022927415762914e6	1.4003441208491659e22	0.8931467305581102	0.6826064631897723	0.26795922545220824	0.9995297810128818
0.012387042582730809	6.2755938580331536e-27	3.022927415762914e6	1.4003441208491659e22	0.8931467305581102	0.6826064631897723	0.26795922545220824	0.9995297810128818
0.012438140825366678	6.456622819182996e-27	3.022927415762914e6	1.4003441208491659e22	0.8931467305581102	0.6826064631897723	0.26795922545220824	0.9995297810128818
0.012489449855233077	6.640826836171274e-27	3.022927415762914e6	1.4003441208491659e22	0.8931467305581102	0.6826064631897723	0.26795922545220824	0.9995297810128818
0.012540970541856126	6.828019968108487e-27	3.022927415762914e6	1.4003441208491659e22	0.8931467305581102	0.6826064631897723	0.26795922545220824	0.9995297810128818
0.012592703758348905	7.018011138741344e-27	3.022927415762914e6	1.4003441208491659e22	0.8931467305581102	0.6826064631897723	0.26795922545220824	0.9995297810128818
0.012644650381426056	7.210604045318465e-27	3.022927415762914e6	1.4003441208491659e22	0.8931467305581102	0.6826064631897723	0.26795922545220824	0.9995297810128818
0.012696811291418938	7.405597066083154e-27	3.022927415762914e6	1.4003441208491659e22	0.8931467305581102	0.6826064631897723	0.26795922545220824	0.9995297810128818
0.012749187372290355	7.602783166370607e-27	3.022927415762914e6	1.4003441208491659e22	0.8931467305581102	0.6826064631897723	0.26795922545220824	0.9995297810128818
0.012801779511649564	7.801949803292589e-27	3.022927415762914e6	1.4003441208491659e22	0.8931467305581102	0.6826064631897723	0.26795922545220824	0.9995297810128818
0.012854588600767346	8.002878828989311e-27	3.022927415762914e6	1.4003441208491659e22	0.8931467305581102	0.6826064631897723	0.26795922545220824	0.9995297810128818
0.012907615534591082	8.20534639242815e-27	3.022927415762914e6	1.4003441208491659e22	0.8931467305581102	0.6826064631897723	0.26795922545220824	0.9995297810128818
0.01296086121176	8.409122839729803e-27	3.022927415762914e6	1.4003441208491659e22	0.8931467305581102	0.6826064631897723	0.26795922545220824	0.9995297810128818
0.013014326534620167	8.613972612999705e-27	3.022927415762914e6	1.4003441208491659e22	0.8931467305581102	0.6826064631897723	0.26795922545220824	0.9995297810128818
0.013068012409240114	8.819654147647449e-27	3.022927415762914e6	1.4003441208491659e22	0.8931467305581102	0.6826064631897723	0.26795922545220824	0.9995297810128818
0.01312191974542598	9.025919768168765e-27	3.022927415762914e6	1.4003441208491659e22	0.8931467305581102	0.6826064631897723	0.26795922545220824	0.9995297810128818
0.013176049456736972	9.232515582372021e-27	3.022927415762914e6	1.4003441208491659e22	0.8931467305581102	0.6826064631897723	0.26795922545220824	0.9995297810128818
0.013230402460500857	9.439181374026504e-27	3.022927415762914e6	1.4003441208491659e22	0.8931467305581102	0.6826064631897723	0.26795922545220824	0.9995297810128818
0.0132849796778295	9.645650493910581e-27	3.022927415762914e6	1.4003441208491659e22	0.8931467305581102	0.6826064631897723	0.26795922545220824	0.9995297810128818
0.013339782033634486	9.851649749237846e-27	3.022927415762914e6	1.4003441208491659e22	0.8931467305581102	0.6826064631897723	0.26795922545220824	0.9995297810128818
0.013394810456642835	1.0056899291438844e-26	3.022927415762914e6	1.4003441208491659e22	0.8931467305581102	0.6826064631897723	0.26795922545220824	0.9995297810128818
0.013450065879412531	1.0261112502274512e-26	3.022927415762914e6	1.4003441208491659e22	0.8931467305581102	0.6826064631897723	0.26795922545220824	0.9995297810128818
0.01350554923834865	1.0463995878261222e-26	3.022927415762914e6	1.4003441208491659e22	0.8931467305581102	0.6826064631897723	0.26795922545220824	0.9995297810128818
0.013561261473719013	1.066524891338017e-26	3.022927415762914e6	1.4003441208491659e22	0.8931467305581102	0.6826064631897723	0.26795922545220824	0.9995297810128818
0.013617203529670175	1.0864581960420224e-26	3.022927415762914e6	1.4003441208491659e22	0.8931467305581102	0.6826064631897723	0.26795922545220824	0.9995297810128818
0.013673376354243425	1.1067269119719525e-26	3.022927415762914e6	1.4003441208491659e22	0.8931467305581102	0.6826064631897723	0.26795922545220824	0.9995297810128818
0.013729780899390847	1.1277486208395415e-26	3.022927415762914e6	1.4003441208491659e22	0.8931467305581102	0.6826064631897723	0.26795922545220824	0.9995297810128818
0.01378641812099152	1.1494987153952853e-26	3.022927415762914e6	1.4003441208491659e22	0.8931467305581102	0.6826064631897723	0.26795922545220824	0.9995297810128818
0.013843288978867482	1.1719518446161524e-26	3.022927415762914e6	1.4003441208491659e22	0.8931467305581102	0.6826064631897723	0.26795922545220824	0.9995297810128818
0.013900394436800337	1.1950819001937372e-26	3.022927415762914e6	1.4003441208491659e22	0.8931467305581102	0.6826064631897723	0.26795922545220824	0.9995297810128818
0.013957735462547366	1.2188620028163099e-26	3.022927415762914e6	1.4003441208491659e22	0.8931467305581102	0.6826064631897723	0.26795922545220824	0.9995297810128818
0.014015313027857978	1.2432644882422179e-26	3.022927415762914e6	1.4003441208491659e22	0.8931467305581102	0.6826064631897723	0.26795922545220824	0.9995297810128818
0.014073128108490185	1.2682608931615774e-26	3.022927415762914e6	1.4003441208491659e22	0.8931467305581102	0.6826064631897723	0.26795922545220824	0.9995297810128818
0.014131181684227128	1.2938219408433213e-26	3.022927415762914e6	1.4003441208491659e22	0.8931467305581102	0.6826064631897723	0.26795922545220824	0.9995297810128818
0.014189474738893692	1.3199175265646002e-26	3.022927415762914e6	1.4003441208491659e22	0.8931467305581102	0.6826064631897723	0.26795922545220824	0.9995297810128818
0.014248008260373231	1.3465167028195316e-26	3.022927415762914e6	1.4003441208491659e22	0.8931467305581102	0.6826064631897723	0.26795922545220824	0.9995297810128818
0.01430678324062408	1.3735876643040358e-26	3.022927415762914e6	1.4003441208491659e22	0.8931467305581102	0.6826064631897723	0.26795922545220824	0.9995297810128818
0.014365800675696708	1.401097732674056e-26	3.022927415762914e6	1.4003441208491659e22	0.8931467305581102	0.6826064631897723	0.26795922545220824	0.9995297810128818
0.014425061565750373	1.4290133410734608e-26	3.022927415762914e6	1.4003441208491659e22	0.8931467305581102	0.6826064631897723	0.26795922545220824	0.9995297810128818
0.014484566915070126	1.4573000184288126e-26	3.022927415762914e6	1.4003441208491659e22	0.8931467305581102	0.6826064631897723	0.26795922545220824	0.9995297810128818
0.014544317732083834	1.4859223735076083e-26	3.022927415762914e6	1.4003441208491659e22	0.8931467305581102	0.6826064631897723	0.26795922545220824	0.9995297810128818
0.014604315029379259	1.5148440787367084e-26	3.022927415762914e6	1.4003441208491659e22	0.8931467305581102	0.6826064631897723	0.26795922545220824	0.9995297810128818
0.014664559823721293	1.544027853777673e-26	3.022927415762914e6	1.4003441208491659e22	0.8931467305581102	0.6826064631897723	0.26795922545220824	0.9995297810128818
0.01472505313606894	1.5734354488554151e-26	3.022927415762914e6	1.4003441208491659e22	0.8931467305581102	0.6826064631897723	0.26795922545220824	0.9995297810128818
0.014785795991592977	1.60302762783722e-26	3.022927415762914e6	1.4003441208491659e22	0.8931467305581102	0.6826064631897723	0.26795922545220824	0.9995297810128818
0.014846789419693094	1.6327641510580413e-26	3.022927415762914e6	1.4003441208491659e22	0.8931467305581102	0.6826064631897723	0.26795922545220824	0.9995297810128818
0.014908034454015392	1.6626037578890272e-26	3.022927415762914e6	1.4003441208491659e22	0.8931467305581102	0.6826064631897723	0.26795922545220824	0.9995297810128818
0.014969532132469909	1.6925041490455054e-26	3.022927415762914e6	1.4003441208491659e22	0.8931467305581102	0.6826064631897723	0.26795922545220824	0.9995297810128818
0.015031283497248197	1.7224219686308688e-26	3.022927415762914e6	1.4003441208491659e22	0.8931467305581102	0.6826064631897723	0.26795922545220824	0.9995297810128818
0.015093289594841054	1.7523127859127184e-26	3.022927415762914e6	1.4003441208491659e22	0.8931467305581102	0.6826064631897723	0.26795922545220824	0.9995297810128818
0.015155551476056014	1.7821310768273844e-26	3.022927415762914e6	1.4003441208491659e22	0.8931467305581102	0.6826064631897723	0.26795922545220824	0.9995297810128818
0.015218070196035514	1.8118302052095054e-26	3.022927415762914e6	1.4003441208491659e22	0.8931467305581102	0.6826064631897723	0.26795922545220824	0.9995297810128818
0.015280846814274546	1.841362403742275e-26	3.022927415762914e6	1.4003441208491659e22	0.8931467305581102	0.6826064631897723	0.26795922545220824	0.9995297810128818
0.015343882394638653	1.8706787546249272e-26	3.022927415762914e6	1.4003441208491659e22	0.8931467305581102	0.6826064631897723	0.26795922545220824	0.9995297810128818
0.015407178005381977	1.899729169953397e-26	3.022927415762914e6	1.4003441208491659e22	0.8931467305581102	0.6826064631897723	0.26795922545220824	0.9995297810128818
0.015470734719165345	1.9290704424627907e-26	3.022927415762914e6	1.4003441208491659e22	0.8931467305581102	0.6826064631897723	0.26795922545220824	0.9995297810128818
0.01553455361307447	1.9600002772410345e-26	3.022927415762914e6	1.4003441208491659e22	0.8931467305581102	0.6826064631897723	0.26795922545220824	0.9995297810128818
0.015598635768638236	1.992574484997384e-26	3.022927415762914e6	1.4003441208491659e22	0.8931467305581102	0.6826064631897723	0.26795922545220824	0.9995297810128818
0.01566298227184681	2.0268041754248217e-26	3.022927415762914e6	1.4003441208491659e22	0.8931467305581102	0.6826064631897723	0.26795922545220824	0.9995297810128818
0.015727594213170396	2.0627004377509952e-26	3.022927415762914e6	1.4003441208491659e22	0.8931467305581102	0.6826064631897723	0.26795922545220824	0.9995297810128818
0.015792472687577472	2.1002743388373146e-26	3.022927415762914e6	1.4003441208491659e22	0.8931467305581102	0.6826064631897723	0.26795922545220824	0.9995297810128818
0.015857618794553417	2.1395369212395795e-26	3.022927415762914e6	1.4003441208491659e22	0.8931467305581102	0.6826064631897723	0.26795922545220824	0.9995297810128818
0.015923033638119134	2.1804992012293573e-26	3.022927415762914e6	1.4003441208491659e22	0.8931467305581102	0.6826064631897723	0.26795922545220824	0.9995297810128818
0.01598871832684976	2.2231721667755694e-26	3.022927415762914e6	1.4003441208491659e22	0.8931467305581102	0.6826064631897723	0.26795922545220824	0.9995297810128818
0.016054673973893534	2.2675667754854866e-26	3.022927415762914e6	1.4003441208491659e22	0.8931467305581102	0.6826064631897723	0.26795922545220824	0.9995297810128818
0.016120901696990368	2.313693952504613e-26	3.022927415762914e6	1.4003441208491659e22	0.8931467305581102	0.6826064631897723	0.26795922545220824	0.9995297810128818
0.016187402618491213	2.3615645883750698e-26	3.022927415762914e6	1.4003441208491659e22	0.8931467305581102	0.6826064631897723	0.26795922545220824	0.9995297810128818
0.016254177865376803	2.411189536851236e-26	3.022927415762914e6	1.4003441208491659e22	0.8931467305581102	0.6826064631897723	0.26795922545220824	0.9995297810128818
0.01632122856927682	2.4625796126725566e-26	3.022927415762914e6	1.4003441208491659e22	0.8931467305581102	0.6826064631897723	0.26795922545220824	0.9995297810128818
0.016388555866489078	2.515745589292413e-26	3.022927415762914e6	1.4003441208491659e22	0.8931467305581102	0.6826064631897723	0.26795922545220824	0.9995297810128818
0.016456160897998763	2.5706981965627823e-26	3.022927415762914e6	1.4003441208491659e22	0.8931467305581102	0.6826064631897723	0.26795922545220824	0.9995297810128818
