r[m]	M[Msun]	rho[g/cm^3]	P[N/m^2]	n_e[pm^-3]	n_p[pm^-3]	muF_e[MeV]	B
0.01000000000000002	2.6087579979189072e-39	2.0536599595222223e8	5.625004036071015e24	60.91069839499102	46.34363517812349	1.944828405480125	0.996953309401765
0.010039486215165061	5.202730334133285e-27	2.0536599595222223e8	5.625004036071015e24	60.91069839499102	46.34363517812349	1.944828405480125	0.996953309401765
0.01007912834644891	1.0572042595136015e-26	2.0536599595222223e8	5.625004036071015e24	60.91069839499102	46.34363517812349	1.944828405480125	0.996953309401765
0.010118927009505263	1.608887503910066e-26	2.0536599595222223e8	5.625004036071015e24	60.91069839499102	46.34363517812349	1.944828405480125	0.996953309401765
0.01015888282241893	2.173368635607585e-26	2.0536599595222223e8	5.625004036071015e24	60.91069839499102	46.34363517812349	1.944828405480125	0.996953309401765
0.010198996405715179	2.74864476247669e-26	2.0536599595222223e8	5.625004036071015e24	60.91069839499102	46.34363517812349	1.944828405480125	0.996953309401765
0.010239268382369535	3.332663415173234e-26	2.0536599595222223e8	5.625004036071015e24	60.91069839499102	46.34363517812349	1.944828405480125	0.996953309401765
0.010279699377817421	3.9233217193458665e-26	2.0536599595222223e8	5.625004036071015e24	60.91069839499102	46.34363517812349	1.944828405480125	0.996953309401765
0.010320290019963865	4.5184655559787827e-26	2.0536599595222223e8	5.625004036071015e24	60.91069839499102	46.34363517812349	1.944828405480125	0.996953309401765
0.010361040939193216	5.115888709711399e-26	2.0536599595222223e8	5.625004036071015e24	60.91069839499102	46.34363517812349	1.944828405480125	0.996953309401765
0.010401952768379095	5.713332004978242e-26	2.0536599595222223e8	5.625004036071015e24	60.91069839499102	46.34363517812349	1.944828405480125	0.996953309401765
0.010443026142893977	6.308482429799128e-26	2.0536599595222223e8	5.625004036071015e24	60.91069839499102	46.34363517812349	1.944828405480125	0.996953309401765
0.010484261700619224	6.899236162663464e-26	2.0536599595222223e8	5.625004036071015e24	60.91069839499102	46.34363517812349	1.944828405480125	0.996953309401765
0.01052566008195495	7.500558639252459e-26	2.0536599595222223e8	5.625004036071015e24	60.91069839499102	46.34363517812349	1.944828405480125	0.996953309401765
0.010567221929829966	8.120602569890571e-26	2.0536599595222223e8	5.625004036071015e24	60.91069839499102	46.34363517812349	1.944828405480125	0.996953309401765
0.010608947889711725	8.757053082730306e-26	2.0536599595222223e8	5.625004036071015e24	60.91069839499102	46.34363517812349	1.944828405480125	0.996953309401765
0.010650838609616513	9.407537315653777e-26	2.0536599595222223e8	5.625004036071015e24	60.91069839499102	46.34363517812349	1.944828405480125	0.996953309401765
0.010692894740119257	1.0069623444589923e-25	2.0536599595222223e8	5.625004036071015e24	60.91069839499102	46.34363517812349	1.944828405480125	0.996953309401765
0.010735116934363808	1.0740819697888861e-25	2.0536599595222223e8	5.625004036071015e24	60.91069839499102	46.34363517812349	1.944828405480125	0.996953309401765
0.010777505848073025	1.1418573356558231e-25	2.0536599595222223e8	5.625004036071015e24	60.91069839499102	46.34363517812349	1.944828405480125	0.996953309401765
0.01082006213955893	1.2100269740176813e-25	2.0536599595222223e8	5.625004036071015e24	60.91069839499102	46.34363517812349	1.944828405480125	0.996953309401765
0.010862786469733106	1.2783231178298994e-25	2.0536599595222223e8	5.625004036071015e24	60.91069839499102	46.34363517812349	1.944828405480125	0.996953309401765
0.010905679502116685	1.3464715967146394e-25	2.0536599595222223e8	5.625004036071015e24	60.91069839499102	46.34363517812349	1.944828405480125	0.996953309401765
0.01094874190285084	1.4141917311406211e-25	2.0536599595222223e8	5.625004036071015e24	60.91069839499102	46.34363517812349	1.944828405480125	0.996953309401765
0.010991974340707089	1.482262299850536e-25	2.0536599595222223e8	5.625004036071015e24	60.91069839499102	46.34363517812349	1.944828405480125	0.996953309401765
0.011035377487097668	1.552649272844138e-25	2.0536599595222223e8	5.625004036071015e24	60.91069839499102	46.34363517812349	1.944828405480125	0.996953309401765
0.011078952016085922	1.6252877784528572e-25	2.0536599595222223e8	5.625004036071015e24	60.91069839499102	46.34363517812349	1.944828405480125	0.996953309401765
0.011122698604396956	1.7000475059682684e-25	2.0536599595222223e8	5.625004036071015e24	60.91069839499102	46.34363517812349	1.944828405480125	0.996953309401765
0.011166617931427869	1.7767946874548604e-25	2.0536599595222223e8	5.625004036071015e24	60.91069839499102	46.34363517812349	1.944828405480125	0.996953309401765
0.011210710679258487	1.8553920389172498e-25	2.0536599595222223e8	5.625004036071015e24	60.91069839499102	46.34363517812349	1.944828405480125	0.996953309401765
0.01125497753266191	1.9356987006167573e-25	2.0536599595222223e8	5.625004036071015e24	60.91069839499102	46.34363517812349	1.944828405480125	0.996953309401765
0.011299419179115151	2.0175701765265108e-25	2.0536599595222223e8	5.625004036071015e24	60.91069839499102	46.34363517812349	1.944828405480125	0.996953309401765
0.011344036308809759	2.1008582729133497e-25	2.0536599595222223e8	5.625004036071015e24	60.91069839499102	46.34363517812349	1.944828405480125	0.996953309401765
0.01138882961466273	2.1854110360354826e-25	2.0536599595222223e8	5.625004036071015e24	60.91069839499102	46.34363517812349	1.944828405480125	0.996953309401765
0.011433799792326988	2.2710726889427872e-25	2.0536599595222223e8	5.625004036071015e24	60.91069839499102	46.34363517812349	1.944828405480125	0.996953309401765
0.01147894754020237	2.3576835673695325e-25	2.0536599595222223e8	5.625004036071015e24	60.91069839499102	46.34363517812349	1.944828405480125	0.996953309401765
0.011524273559446437	2.4450800547061936e-25	2.0536599595222223e8	5.625004036071015e24	60.91069839499102	46.34363517812349	1.944828405480125	0.996953309401765
0.0115697785539853	2.5330945160384594e-25	2.0536599595222223e8	5.625004036071015e24	60.91069839499102	46.34363517812349	1.944828405480125	0.996953309401765
0.011615463230524755	2.621555231241591e-25	2.0536599595222223e8	5.625004036071015e24	60.91069839499102	46.34363517812349	1.944828405480125	0.996953309401765
0.01166132829856097	2.7102863271161552e-25	2.0536599595222223e8	5.625004036071015e24	60.91069839499102	46.34363517812349	1.944828405480125	0.996953309401765
0.011707374470391687	2.79910770855425e-25	2.0536599595222223e8	5.625004036071015e24	60.91069839499102	46.34363517812349	1.944828405480125	0.996953309401765
0.011753602461127246	2.8878349887219824e-25	2.0536599595222223e8	5.625004036071015e24	60.91069839499102	46.34363517812349	1.944828405480125	0.996953309401765
0.01180001298870169	2.9762794182457144e-25	2.0536599595222223e8	5.625004036071015e24	60.91069839499102	46.34363517812349	1.944828405480125	0.996953309401765
0.011846606773883857	3.0642478133886744e-25	2.0536599595222223e8	5.625004036071015e24	60.91069839499102	46.34363517812349	1.944828405480125	0.996953309401765
0.011893384540288779	3.151542483205115e-25	2.0536599595222223e8	5.625004036071015e24	60.91069839499102	46.34363517812349	1.944828405480125	0.996953309401765
0.011940347014388623	3.2385945327429127e-25	2.0536599595222223e8	5.625004036071015e24	60.91069839499102	46.34363517812349	1.944828405480125	0.996953309401765
0.011987494925524164	3.3283116256677494e-25	2.0536599595222223e8	5.625004036071015e24	60.91069839499102	46.34363517812349	1.944828405480125	0.996953309401765
0.012034829005916075	3.4209295987127335e-25	2.0536599595222223e8	5.625004036071015e24	60.91069839499102	46.34363517812349	1.944828405480125	0.996953309401765
0.012082349990676283	3.5162649998519967e-25	2.0536599595222223e8	5.625004036071015e24	60.91069839499102	46.34363517812349	1.944828405480125	0.996953309401765
0.012130058617819352	3.6141295527995556e-25	2.0536599595222223e8	5.625004036071015e24	60.91069839499102	46.34363517812349	1.944828405480125	0.996953309401765
0.012177955628274131	3.7143300751018905e-25	2.0536599595222223e8	5.625004036071015e24	60.91069839499102	46.34363517812349	1.944828405480125	0.996953309401765
0.012226041765894967	3.8166683950470453e-25	2.0536599595222223e8	5.625004036071015e24	60.91069839499102	46.34363517812349	1.944828405480125	0.996953309401765
0.012274317777473459	3.920941267376374e-25	2.0536599595222223e8	5.625004036071015e24	60.91069839499102	46.34363517812349	1.944828405480125	0.996953309401765
0.01232278441275	4.0269402877814986e-25	2.0536599595222223e8	5.625004036071015e24	60.91069839499102	46.34363517812349	1.944828405480125	0.996953309401765
0.012371442424425378	4.1344518061707986e-25	2.0536599595222223e8	5.625004036071015e24	60.91069839499102	46.34363517812349	1.944828405480125	0.996953309401765
0.012420292568172656	4.243256838689573e-25	2.0536599595222223e8	5.625004036071015e24	60.91069839499102	46.34363517812349	1.944828405480125	0.996953309401765
0.01246933560264862	4.353130978475731e-25	2.0536599595222223e8	5.625004036071015e24	60.91069839499102	46.34363517812349	1.944828405480125	0.996953309401765
0.01251857228950575	4.46384430513624e-25	2.0536599595222223e8	5.625004036071015e24	60.91069839499102	46.34363517812349	1.944828405480125	0.996953309401765
0.012568003393404007	4.575161292925884e-25	2.0536599595222223e8	5.625004036071015e24	60.91069839499102	46.34363517812349	1.944828405480125	0.996953309401765
0.012617629682022699	4.68684071761154e-25	2.0536599595222223e8	5.625004036071015e24	60.91069839499102	46.34363517812349	1.944828405480125	0.996953309401765
0.012667451926072363	4.7986355620044845e-25	2.0536599595222223e8	5.625004036071015e24	60.91069839499102	46.34363517812349	1.944828405480125	0.996953309401765
0.012717470899306936	4.910292920143614e-25	2.0536599595222223e8	5.625004036071015e24	60.91069839499102	46.34363517812349	1.944828405480125	0.996953309401765
0.012767687378535455	5.0215539001099955e-25	2.0536599595222223e8	5.625004036071015e24	60.91069839499102	46.34363517812349	1.944828405480125	0.996953309401765
0.01281810214363434	5.132153525456996e-25	2.0536599595222223e8	5.625004036071015e24	60.91069839499102	46.34363517812349	1.944828405480125	0.996953309401765
0.012868715977559442	5.2418206352357405e-25	2.0536599595222223e8	5.625004036071015e24	60.91069839499102	46.34363517812349	1.944828405480125	0.996953309401765
0.012919529666358162	5.351581591673749e-25	2.0536599595222223e8	5.625004036071015e24	60.91069839499102	46.34363517812349	1.944828405480125	0.996953309401765
0.012970543999181856	5.462961586330442e-25	2.0536599595222223e8	5.625004036071015e24	60.91069839499102	46.34363517812349	1.944828405480125	0.996953309401765
0.013021759768297793	5.575980921199308e-25	2.0536599595222223e8	5.625004036071015e24	60.91069839499102	46.34363517812349	1.944828405480125	0.996953309401765
0.013073177769101642	5.690655561197933e-25	2.0536599595222223e8	5.625004036071015e24	60.91069839499102	46.34363517812349	1.944828405480125	0.996953309401765
0.0131247988001298	5.807001609390282e-25	2.0536599595222223e8	5.625004036071015e24	60.91069839499102	46.34363517812349	1.944828405480125	0.996953309401765
0.013176623663071782	5.925035308126438e-25	2.0536599595222223e8	5.625004036071015e24	60.91069839499102	46.34363517812349	1.944828405480125	0.996953309401765
0.01322865316278261	6.044773040191448e-25	2.0536599595222223e8	5.625004036071015e24	60.91069839499102	46.34363517812349	1.944828405480125	0.996953309401765
0.013280888107295545	6.166231329964182e-25	2.0536599595222223e8	5.625004036071015e24	60.91069839499102	46.34363517812349	1.944828405480125	0.996953309401765
0.013333329307834298	6.289426844584141e-25	2.0536599595222223e8	5.625004036071015e24	60.91069839499102	46.34363517812349	1.944828405480125	0.996953309401765
0.013385977578825847	6.414376395129037e-25	2.0536599595222223e8	5.625004036071015e24	60.91069839499102	46.34363517812349	1.944828405480125	0.996953309401765
0.013438833737913042	6.541096937801222e-25	2.0536599595222223e8	5.625004036071015e24	60.91069839499102	46.34363517812349	1.944828405480125	0.996953309401765
0.013491898605967287	6.669605575123815e-25	2.0536599595222223e8	5.625004036071015e24	60.91069839499102	46.34363517812349	1.944828405480125	0.996953309401765
0.013545173007101249	6.799919557146372e-25	2.0536599595222223e8	5.625004036071015e24	60.91069839499102	46.34363517812349	1.944828405480125	0.996953309401765
0.01359865776868186	6.932056282660879e-25	2.0536599595222223e8	5.625004036071015e24	60.91069839499102	46.34363517812349	1.944828405480125	0.996953309401765
0.013652353721342854	7.066033300426356e-25	2.0536599595222223e8	5.625004036071015e24	60.91069839499102	46.34363517812349	1.944828405480125	0.996953309401765
0.013706261698997873	7.201868310404505e-25	2.0536599595222223e8	5.625004036071015e24	60.91069839499102	46.34363517812349	1.944828405480125	0.996953309401765
0.013760382538853375	7.339579165004878e-25	2.0536599595222223e8	5.625004036071015e24	60.91069839499102	46.34363517812349	1.944828405480125	0.996953309401765
0.013814717081421618	7.479183870339958e-25	2.0536599595222223e8	5.625004036071015e24	60.91069839499102	46.34363517812349	1.944828405480125	0.996953309401765
0.01386926617053368	7.62070058749044e-25	2.0536599595222223e8	5.625004036071015e24	60.91069839499102	46.34363517812349	1.944828405480125	0.996953309401765
0.013924030653352775	7.764147633781397e-25	2.0536599595222223e8	5.625004036071015e24	60.91069839499102	46.34363517812349	1.944828405480125	0.996953309401765
0.013979011380387067	7.909543484067147e-25	2.0536599595222223e8	5.625004036071015e24	60.91069839499102	46.34363517812349	1.944828405480125	0.996953309401765
0.014034209205503122	8.056906772028139e-25	2.0536599595222223e8	5.625004036071015e24	60.91069839499102	46.34363517812349	1.944828405480125	0.996953309401765
0.014089624985939093	8.206256291477421e-25	2.0536599595222223e8	5.625004036071015e24	60.91069839499102	46.34363517812349	1.944828405480125	0.996953309401765
0.014145259582317988	8.357610997677696e-25	2.0536599595222223e8	5.625004036071015e24	60.91069839499102	46.34363517812349	1.944828405480125	0.996953309401765
0.014201113858661268	8.5109900086698e-25	2.0536599595222223e8	5.625004036071015e24	60.91069839499102	46.34363517812349	1.944828405480125	0.996953309401765
0.014257188682401905	8.666412606610215e-25	2.0536599595222223e8	5.625004036071015e24	60.91069839499102	46.34363517812349	1.944828405480125	0.996953309401765
0.014313484924398094	8.82389823912109e-25	2.0536599595222223e8	5.625004036071015e24	60.91069839499102	46.34363517812349	1.944828405480125	0.996953309401765
0.014370003458946732	8.98346652065026e-25	2.0536599595222223e8	5.625004036071015e24	60.91069839499102	46.34363517812349	1.944828405480125	0.996953309401765
0.01442674516379697	9.145137233842361e-25	2.0536599595222223e8	5.625004036071015e24	60.91069839499102	46.34363517812349	1.944828405480125	0.996953309401765
0.014483710920163803	9.308930330920916e-25	2.0536599595222223e8	5.625004036071015e24	60.91069839499102	46.34363517812349	1.944828405480125	0.996953309401765
0.014540901612741988	9.47486593508235e-25	2.0536599595222223e8	5.625004036071015e24	60.91069839499102	46.34363517812349	1.944828405480125	0.996953309401765
0.01459831812971943	9.642964341899547e-25	2.0536599595222223e8	5.625004036071015e24	60.91069839499102	46.34363517812349	1.944828405480125	0.996953309401765
0.014655961362791214	9.813246020738452e-25	2.0536599595222223e8	5.625004036071015e24	60.91069839499102	46.34363517812349	1.944828405480125	0.996953309401765
0.014713832207173384	9.985731616185136e-25	2.0536599595222223e8	5.625004036071015e24	60.91069839499102	46.34363517812349	1.944828405480125	0.996953309401765
0.014771931561616802	1.0160441949484519e-24	2.0536599595222223e8	5.625004036071015e24	60.91069839499102	46.34363517812349	1.944828405480125	0.996953309401765
0.014830260328421328	1.0337398019991396e-24	2.0536599595222223e8	5.625004036071015e24	60.91069839499102	46.34363517812349	1.944828405480125	0.996953309401765
0.014888819413449493	1.0516621006631519e-24	2.0536599595222223e8	5.625004036071015e24	60.91069839499102	46.34363517812349	1.944828405480125	0.996953309401765
0.014947609726140785	1.069813226937611e-24	2.0536599595222223e8	5.625004036071015e24	60.91069839499102	46.34363517812349	1.944828405480125	0.996953309401765
0.015006632179525733	1.0881953350727428e-24	2.0536599595222223e8	5.625004036071015e24	60.91069839499102	46.34363517812349	1.944828405480125	0.996953309401765
0.01506588769024007	1.106810597721649e-24	2.0536599595222223e8	5.625004036071015e24	60.91069839499102	46.34363517812349	1.944828405480125	0.996953309401765
0.015125377178538927	1.1256612060912627e-24	2.0536599595222223e8	5.625004036071015e24	60.91069839499102	46.34363517812349	1.944828405480125	0.996953309401765
0.015185101568311347	1.1447493700946144e-24	2.0536599595222223e8	5.625004036071015e24	60.91069839499102	46.34363517812349	1.944828405480125	0.996953309401765
0.015245061787094283	1.1640773185041375e-24	2.0536599595222223e8	5.625004036071015e24	60.91069839499102	46.34363517812349	1.944828405480125	0.996953309401765
0.01530525876608724	1.1836472991063943e-24	2.0536599595222223e8	5.625004036071015e24	60.91069839499102	46.34363517812349	1.944828405480125	0.996953309401765
0.015365693440166677	1.2034615788579567e-24	2.0536599595222223e8	5.625004036071015e24	60.91069839499102	46.34363517812349	1.944828405480125	0.996953309401765
0.015426366747900525	1.2235224440425558e-24	2.0536599595222223e8	5.625004036071015e24	60.91069839499102	46.34363517812349	1.944828405480125	0.996953309401765
0.015487279631562708	1.243832200429483e-24	2.0536599595222223e8	5.625004036071015e24	60.91069839499102	46.34363517812349	1.944828405480125	0.996953309401765
0.015548433037148012	1.2643931734333629e-24	2.0536599595222223e8	5.625004036071015e24	60.91069839499102	46.34363517812349	1.944828405480125	0.996953309401765
0.01560982791438642	1.2852077082750065e-24	2.0536599595222223e8	5.625004036071015e24	60.91069839499102	46.34363517812349	1.944828405480125	0.996953309401765
0.015671465216758093	1.3062781701437733e-24	2.0536599595222223e8	5.625004036071015e24	60.91069839499102	46.34363517812349	1.944828405480125	0.996953309401765
0.01573334590150813	1.3276069443611218e-24	2.0536599595222223e8	5.625004036071015e24	60.91069839499102	46.34363517812349	1.944828405480125	0.996953309401765
0.015795470929661368	1.3491964365454917e-24	2.0536599595222223e8	5.625004036071015e24	60.91069839499102	46.34363517812349	1.944828405480125	0.996953309401765
0.015857841266037544	1.3710490727786102e-24	2.0536599595222223e8	5.625004036071015e24	60.91069839499102	46.34363517812349	1.944828405480125	0.996953309401765
0.015920457879265926	1.3931672997729218e-24	2.0536599595222223e8	5.625004036071015e24	60.91069839499102	46.34363517812349	1.944828405480125	0.996953309401765
0.015983321741800595	1.4155535850405879e-24	2.0536599595222223e8	5.625004036071015e24	60.91069839499102	46.34363517812349	1.944828405480125	0.996953309401765
0.01604643382993548	1.438210417063727e-24	2.0536599595222223e8	5.625004036071015e24	60.91069839499102	46.34363517812349	1.944828405480125	0.996953309401765
0.016109795123819524	1.4611403054660554e-24	2.0536599595222223e8	5.625004036071015e24	60.91069839499102	46.34363517812349	1.944828405480125	0.996953309401765
0.016173406607471845	1.484345781185882e-24	2.0536599595222223e8	5.625004036071015e24	60.91069839499102	46.34363517812349	1.944828405480125	0.996953309401765
0.01623726926879728	1.5078293966506133e-24	2.0536599595222223e8	5.625004036071015e24	60.91069839499102	46.34363517812349	1.944828405480125	0.996953309401765
0.016301384099601326	1.5315937259524183e-24	2.0536599595222223e8	5.625004036071015e24	60.91069839499102	46.34363517812349	1.944828405480125	0.996953309401765
0.01636575209560581	1.5556413650255567e-24	2.0536599595222223e8	5.625004036071015e24	60.91069839499102	46.34363517812349	1.944828405480125	0.996953309401765
