r[m]	M[Msun]	rho[g/cm^3]	P[N/m^2]	n_e[pm^-3]	n_p[pm^-3]	muF_e[MeV]	B
0.010000000000000009	1.7346895965543245e-39	3.0310342068808746e8	9.555936745231901e24	90.03856832989014	91.11228236637584	2.2726174569935584	0.9964739803133758
0.010039303864393317	7.642814512517998e-27	3.0310342068808746e8	9.555936745231901e24	90.03856832989014	91.11228236637584	2.2726174569935584	0.9964739803133758
0.010078762208162248	1.552929782819328e-26	3.0310342068808746e8	9.555936745231901e24	90.03856832989014	91.11228236637584	2.2726174569935584	0.9964739803133758
0.010118375638470447	2.3631657996880925e-26	3.0310342068808746e8	9.555936745231901e24	90.03856832989014	91.11228236637584	2.2726174569935584	0.9964739803133758
0.010158144764867946	3.1921407152857554e-26	3.0310342068808746e8	9.555936745231901e24	90.03856832989014	91.11228236637584	2.2726174569935584	0.9964739803133758
0.010198070199300541	4.036934989435739e-26	3.0310342068808746e8	9.555936745231901e24	90.03856832989014	91.11228236637584	2.2726174569935584	0.9964739803133758
0.010238152556119214	4.894557149697119e-26	3.0310342068808746e8	9.555936745231901e24	90.03856832989014	91.11228236637584	2.2726174569935584	0.9964739803133758
0.010278392452089584	5.761942595870946e-26	3.0310342068808746e8	9.555936745231901e24	90.03856832989014	91.11228236637584	2.2726174569935584	0.9964739803133758
0.010318790506401396	6.635952387450415e-26	3.0310342068808746e8	9.555936745231901e24	90.03856832989014	91.11228236637584	2.2726174569935584	0.9964739803133758
0.01035934734067805	7.513372013789093e-26	3.0310342068808746e8	9.555936745231901e24	90.03856832989014	91.11228236637584	2.2726174569935584	0.9964739803133758
0.010400063578986167	8.390910146759602e-26	3.0310342068808746e8	9.555936745231901e24	90.03856832989014	91.11228236637584	2.2726174569935584	0.9964739803133758
0.010440939847845193	9.26519737567014e-26	3.0310342068808746e8	9.555936745231901e24	90.03856832989014	91.11228236637584	2.2726174569935584	0.9964739803133758
0.01048197677623703	1.013299706685253e-25	3.0310342068808746e8	9.555936745231901e24	90.03856832989014	91.11228236637584	2.2726174569935584	0.9964739803133758
0.010523174995615732	1.1015088699184346e-25	3.0310342068808746e8	9.555936745231901e24	90.03856832989014	91.11228236637584	2.2726174569935584	0.9964739803133758
0.010564535139917203	1.1924679522828075e-25	3.0310342068808746e8	9.555936745231901e24	90.03856832989014	91.11228236637584	2.2726174569935584	0.9964739803133758
0.010606057845568966	1.2858398548930659e-25	3.0310342068808746e8	9.555936745231901e24	90.03856832989014	91.11228236637584	2.2726174569935584	0.9964739803133758
0.010647743751499949	1.3812790713036221e-25	3.0310342068808746e8	9.555936745231901e24	90.03856832989014	91.11228236637584	2.2726174569935584	0.9964739803133758
0.01068959349915031	1.4784315472753786e-25	3.0310342068808746e8	9.555936745231901e24	90.03856832989014	91.11228236637584	2.2726174569935584	0.9964739803133758
0.010731607732481328	1.5769345385386617e-25	3.0310342068808746e8	9.555936745231901e24	90.03856832989014	91.11228236637584	2.2726174569935584	0.9964739803133758
0.01077378709798529	1.6764164665256086e-25	3.0310342068808746e8	9.555936745231901e24	90.03856832989014	91.11228236637584	2.2726174569935584	0.9964739803133758
0.010816132244695447	1.776496772045351e-25	3.0310342068808746e8	9.555936745231901e24	90.03856832989014	91.11228236637584	2.2726174569935584	0.9964739803133758
0.010858643824196006	1.8767857668747161e-25	3.0310342068808746e8	9.555936745231901e24	90.03856832989014	91.11228236637584	2.2726174569935584	0.9964739803133758
0.010901322490632148	1.9768844832368737e-25	3.0310342068808746e8	9.555936745231901e24	90.03856832989014	91.11228236637584	2.2726174569935584	0.9964739803133758
0.010944168900720098	2.0763845211400556e-25	3.0310342068808746e8	9.555936745231901e24	90.03856832989014	91.11228236637584	2.2726174569935584	0.9964739803133758
0.010987183713757235	2.1761644781192188e-25	3.0310342068808746e8	9.555936745231901e24	90.03856832989014	91.11228236637584	2.2726174569935584	0.9964739803133758
0.01103036759163222	2.279266867530107e-25	3.0310342068808746e8	9.555936745231901e24	90.03856832989014	91.11228236637584	2.2726174569935584	0.9964739803133758
0.01107372119883516	2.3856742350940057e-25	3.0310342068808746e8	9.555936745231901e24	90.03856832989014	91.11228236637584	2.2726174569935584	0.9964739803133758
0.01111724520246799	2.4951970454996696e-25	3.0310342068808746e8	9.555936745231901e24	90.03856832989014	91.11228236637584	2.2726174569935584	0.9964739803133758
0.011160940272254484	2.6076407555926888e-25	3.0310342068808746e8	9.555936745231901e24	90.03856832989014	91.11228236637584	2.2726174569935584	0.9964739803133758
0.011204807080550733	2.7228057295378307e-25	3.0310342068808746e8	9.555936745231901e24	90.03856832989014	91.11228236637584	2.2726174569935584	0.9964739803133758
0.011248846302355446	2.840487152760369e-25	3.0310342068808746e8	9.555936745231901e24	90.03856832989014	91.11228236637584	2.2726174569935584	0.9964739803133758
0.011293058615320338	2.9604749446509357e-25	3.0310342068808746e8	9.555936745231901e24	90.03856832989014	91.11228236637584	2.2726174569935584	0.9964739803133758
0.01133744469976056	3.082553670017236e-25	3.0310342068808746e8	9.555936745231901e24	90.03856832989014	91.11228236637584	2.2726174569935584	0.9964739803133758
0.011382005238665163	3.20650244926606e-25	3.0310342068808746e8	9.555936745231901e24	90.03856832989014	91.11228236637584	2.2726174569935584	0.9964739803133758
0.011426740917707602	3.3320948672987956e-25	3.0310342068808746e8	9.555936745231901e24	90.03856832989014	91.11228236637584	2.2726174569935584	0.9964739803133758
0.011471652425256305	3.459098881103387e-25	3.0310342068808746e8	9.555936745231901e24	90.03856832989014	91.11228236637584	2.2726174569935584	0.9964739803133758
0.011516740452385247	3.587276726025354e-25	3.0310342068808746e8	9.555936745231901e24	90.03856832989014	91.11228236637584	2.2726174569935584	0.9964739803133758
0.011562005692884594	3.7163848207005935e-25	3.0310342068808746e8	9.555936745231901e24	90.03856832989014	91.11228236637584	2.2726174569935584	0.9964739803133758
0.011607448843271372	3.8461736706320684e-25	3.0310342068808746e8	9.555936745231901e24	90.03856832989014	91.11228236637584	2.2726174569935584	0.9964739803133758
0.011653070602800191	3.9763877703925915e-25	3.0310342068808746e8	9.555936745231901e24	90.03856832989014	91.11228236637584	2.2726174569935584	0.9964739803133758
0.011698871673474	4.106765504435463e-25	3.0310342068808746e8	9.555936745231901e24	90.03856832989014	91.11228236637584	2.2726174569935584	0.9964739803133758
0.01174485276005489	4.237039046494611e-25	3.0310342068808746e8	9.555936745231901e24	90.03856832989014	91.11228236637584	2.2726174569935584	0.9964739803133758
0.011791014570074946	4.366934257555627e-25	3.0310342068808746e8	9.555936745231901e24	90.03856832989014	91.11228236637584	2.2726174569935584	0.9964739803133758
0.01183735781384712	4.496170582378789e-25	3.0310342068808746e8	9.555936745231901e24	90.03856832989014	91.11228236637584	2.2726174569935584	0.9964739803133758
0.01188388320447617	4.624460944555024e-25	3.0310342068808746e8	9.555936745231901e24	90.03856832989014	91.11228236637584	2.2726174569935584	0.9964739803133758
0.011930591457869632	4.752034036336711e-25	3.0310342068808746e8	9.555936745231901e24	90.03856832989014	91.11228236637584	2.2726174569935584	0.9964739803133758
0.011977483292748838	4.883108299602391e-25	3.0310342068808746e8	9.555936745231901e24	90.03856832989014	91.11228236637584	2.2726174569935584	0.9964739803133758
0.012024559430659968	5.018458399021957e-25	3.0310342068808746e8	9.555936745231901e24	90.03856832989014	91.11228236637584	2.2726174569935584	0.9964739803133758
0.012071820595985161	5.157818100190915e-25	3.0310342068808746e8	9.555936745231901e24	90.03856832989014	91.11228236637584	2.2726174569935584	0.9964739803133758
0.012119267515953654	5.300914191882745e-25	3.0310342068808746e8	9.555936745231901e24	90.03856832989014	91.11228236637584	2.2726174569935584	0.9964739803133758
0.012166900920652979	5.447466368105644e-25	3.0310342068808746e8	9.555936745231901e24	90.03856832989014	91.11228236637584	2.2726174569935584	0.9964739803133758
0.012214721543040194	5.597187108464097e-25	3.0310342068808746e8	9.555936745231901e24	90.03856832989014	91.11228236637584	2.2726174569935584	0.9964739803133758
0.012262730118953158	5.7497815568027655e-25	3.0310342068808746e8	9.555936745231901e24	90.03856832989014	91.11228236637584	2.2726174569935584	0.9964739803133758
0.012310927387121865	5.904947398109959e-25	3.0310342068808746e8	9.555936745231901e24	90.03856832989014	91.11228236637584	2.2726174569935584	0.9964739803133758
0.012359314089179793	6.06237473365751e-25	3.0310342068808746e8	9.555936745231901e24	90.03856832989014	91.11228236637584	2.2726174569935584	0.9964739803133758
0.012407890969675334	6.221745954353829e-25	3.0310342068808746e8	9.555936745231901e24	90.03856832989014	91.11228236637584	2.2726174569935584	0.9964739803133758
0.01245665877608324	6.382735612286332e-25	3.0310342068808746e8	9.555936745231901e24	90.03856832989014	91.11228236637584	2.2726174569935584	0.9964739803133758
0.012505618258816128	6.545010290429349e-25	3.0310342068808746e8	9.555936745231901e24	90.03856832989014	91.11228236637584	2.2726174569935584	0.9964739803133758
0.012554770171236025	6.708228470493237e-25	3.0310342068808746e8	9.555936745231901e24	90.03856832989014	91.11228236637584	2.2726174569935584	0.9964739803133758
0.012604115269665964	6.872040398890073e-25	3.0310342068808746e8	9.555936745231901e24	90.03856832989014	91.11228236637584	2.2726174569935584	0.9964739803133758
0.01265365431340162	7.036087950791097e-25	3.0310342068808746e8	9.555936745231901e24	90.03856832989014	91.11228236637584	2.2726174569935584	0.9964739803133758
0.012703388064722994	7.200004492250688e-25	3.0310342068808746e8	9.555936745231901e24	90.03856832989014	91.11228236637584	2.2726174569935584	0.9964739803133758
0.012753317288906135	7.363414740371234e-25	3.0310342068808746e8	9.555936745231901e24	90.03856832989014	91.11228236637584	2.2726174569935584	0.9964739803133758
0.012803442754234933	7.525934621483298e-25	3.0310342068808746e8	9.555936745231901e24	90.03856832989014	91.11228236637584	2.2726174569935584	0.9964739803133758
0.012853765232012926	7.687171127314611e-25	3.0310342068808746e8	9.555936745231901e24	90.03856832989014	91.11228236637584	2.2726174569935584	0.9964739803133758
0.01290428549657517	7.847891913681041e-25	3.0310342068808746e8	9.555936745231901e24	90.03856832989014	91.11228236637584	2.2726174569935584	0.9964739803133758
0.01295500432530016	8.01084260445067e-25	3.0310342068808746e8	9.555936745231901e24	90.03856832989014	91.11228236637584	2.2726174569935584	0.9964739803133758
0.01300592249862179	8.176182413629815e-25	3.0310342068808746e8	9.555936745231901e24	90.03856832989014	91.11228236637584	2.2726174569935584	0.9964739803133758
0.01305704080004136	8.343934504203249e-25	3.0310342068808746e8	9.555936745231901e24	90.03856832989014	91.11228236637584	2.2726174569935584	0.9964739803133758
0.01310836001613963	8.514122238673014e-25	3.0310342068808746e8	9.555936745231901e24	90.03856832989014	91.11228236637584	2.2726174569935584	0.9964739803133758
0.013159880936588928	8.68676918069713e-25	3.0310342068808746e8	9.555936745231901e24	90.03856832989014	91.11228236637584	2.2726174569935584	0.9964739803133758
0.013211604354165305	8.86189909674115e-25	3.0310342068808746e8	9.555936745231901e24	90.03856832989014	91.11228236637584	2.2726174569935584	0.9964739803133758
0.013263531064760718	9.0395359577433e-25	3.0310342068808746e8	9.555936745231901e24	90.03856832989014	91.11228236637584	2.2726174569935584	0.9964739803133758
0.013315661867395294	9.21970394079284e-25	3.0310342068808746e8	9.555936745231901e24	90.03856832989014	91.11228236637584	2.2726174569935584	0.9964739803133758
0.013367997564229617	9.402427430821951e-25	3.0310342068808746e8	9.555936745231901e24	90.03856832989014	91.11228236637584	2.2726174569935584	0.9964739803133758
0.013420538960577018	9.587731022311066e-25	3.0310342068808746e8	9.555936745231901e24	90.03856832989014	91.11228236637584	2.2726174569935584	0.9964739803133758
0.013473286864916178	9.775639521008721e-25	3.0310342068808746e8	9.555936745231901e24	90.03856832989014	91.11228236637584	2.2726174569935584	0.9964739803133758
0.013526242088903259	9.96617794566352e-25	3.0310342068808746e8	9.555936745231901e24	90.03856832989014	91.11228236637584	2.2726174569935584	0.9964739803133758
0.013579405447384589	1.0159371529771676e-24	3.0310342068808746e8	9.555936745231901e24	90.03856832989014	91.11228236637584	2.2726174569935584	0.9964739803133758
0.013632777758409162	1.0355245723337906e-24	3.0310342068808746e8	9.555936745231901e24	90.03856832989014	91.11228236637584	2.2726174569935584	0.9964739803133758
0.01368635984324122	1.0553826194650426e-24	3.0310342068808746e8	9.555936745231901e24	90.03856832989014	91.11228236637584	2.2726174569935584	0.9964739803133758
0.013740152526372899	1.075513883207032e-24	3.0310342068808746e8	9.555936745231901e24	90.03856832989014	91.11228236637584	2.2726174569935584	0.9964739803133758
0.013794156635536889	1.0959209745835244e-24	3.0310342068808746e8	9.555936745231901e24	90.03856832989014	91.11228236637584	2.2726174569935584	0.9964739803133758
0.013848373001719205	1.1166065269877608e-24	3.0310342068808746e8	9.555936745231901e24	90.03856832989014	91.11228236637584	2.2726174569935584	0.9964739803133758
0.013902802459171956	1.1375731963657438e-24	3.0310342068808746e8	9.555936745231901e24	90.03856832989014	91.11228236637584	2.2726174569935584	0.9964739803133758
0.013957445845426178	1.1588236614009783e-24	3.0310342068808746e8	9.555936745231901e24	90.03856832989014	91.11228236637584	2.2726174569935584	0.9964739803133758
0.014012304001304734	1.1803606237007107e-24	3.0310342068808746e8	9.555936745231901e24	90.03856832989014	91.11228236637584	2.2726174569935584	0.9964739803133758
0.014067377770935242	1.2021868079836588e-24	3.0310342068808746e8	9.555936745231901e24	90.03856832989014	91.11228236637584	2.2726174569935584	0.9964739803133758
0.014122668001763069	1.2243049622692442e-24	3.0310342068808746e8	9.555936745231901e24	90.03856832989014	91.11228236637584	2.2726174569935584	0.9964739803133758
0.014178175544564369	1.2467178580683481e-24	3.0310342068808746e8	9.555936745231901e24	90.03856832989014	91.11228236637584	2.2726174569935584	0.9964739803133758
0.014233901253459174	1.2694282905755926e-24	3.0310342068808746e8	9.555936745231901e24	90.03856832989014	91.11228236637584	2.2726174569935584	0.9964739803133758
0.01428984598592454	1.2924390788631797e-24	3.0310342068808746e8	9.555936745231901e24	90.03856832989014	91.11228236637584	2.2726174569935584	0.9964739803133758
0.014346010602807744	1.3157530660762618e-24	3.0310342068808746e8	9.555936745231901e24	90.03856832989014	91.11228236637584	2.2726174569935584	0.9964739803133758
0.014402395968339513	1.3393731196298981e-24	3.0310342068808746e8	9.555936745231901e24	90.03856832989014	91.11228236637584	2.2726174569935584	0.9964739803133758
0.014459002950147347	1.3633021314075907e-24	3.0310342068808746e8	9.555936745231901e24	90.03856832989014	91.11228236637584	2.2726174569935584	0.9964739803133758
0.014515832419268848	1.3875430179613973e-24	3.0310342068808746e8	9.555936745231901e24	90.03856832989014	91.11228236637584	2.2726174569935584	0.9964739803133758
0.01457288525016514	1.4120987207136711e-24	3.0310342068808746e8	9.555936745231901e24	90.03856832989014	91.11228236637584	2.2726174569935584	0.9964739803133758
0.014630162320734311	1.4369722061604034e-24	3.0310342068808746e8	9.555936745231901e24	90.03856832989014	91.11228236637584	2.2726174569935584	0.9964739803133758
0.014687664512324932	1.4621664660762008e-24	3.0310342068808746e8	9.555936745231901e24	90.03856832989014	91.11228236637584	2.2726174569935584	0.9964739803133758
0.014745392709749613	1.4876845177209112e-24	3.0310342068808746e8	9.555936745231901e24	90.03856832989014	91.11228236637584	2.2726174569935584	0.9964739803133758
0.014803347801298617	1.5135294040478944e-24	3.0310342068808746e8	9.555936745231901e24	90.03856832989014	91.11228236637584	2.2726174569935584	0.9964739803133758
0.014861530678753537	1.5397041939139854e-24	3.0310342068808746e8	9.555936745231901e24	90.03856832989014	91.11228236637584	2.2726174569935584	0.9964739803133758
0.014919942237401009	1.566211982291113e-24	3.0310342068808746e8	9.555936745231901e24	90.03856832989014	91.11228236637584	2.2726174569935584	0.9964739803133758
0.014978583376046488	1.5930558904796359e-24	3.0310342068808746e8	9.555936745231901e24	90.03856832989014	91.11228236637584	2.2726174569935584	0.9964739803133758
0.015037454997028082	1.62023906632338e-24	3.0310342068808746e8	9.555936745231901e24	90.03856832989014	91.11228236637584	2.2726174569935584	0.9964739803133758
0.015096558006230446	1.647764684426409e-24	3.0310342068808746e8	9.555936745231901e24	90.03856832989014	91.11228236637584	2.2726174569935584	0.9964739803133758
0.015155893313098703	1.6756359463715133e-24	3.0310342068808746e8	9.555936745231901e24	90.03856832989014	91.11228236637584	2.2726174569935584	0.9964739803133758
0.015215461830652451	1.7038560809404763e-24	3.0310342068808746e8	9.555936745231901e24	90.03856832989014	91.11228236637584	2.2726174569935584	0.9964739803133758
0.0152752644754998	1.732428344336072e-24	3.0310342068808746e8	9.555936745231901e24	90.03856832989014	91.11228236637584	2.2726174569935584	0.9964739803133758
0.015335302167851495	1.7613560204058884e-24	3.0310342068808746e8	9.555936745231901e24	90.03856832989014	91.11228236637584	2.2726174569935584	0.9964739803133758
0.015395575831535058	1.790642420867895e-24	3.0310342068808746e8	9.555936745231901e24	90.03856832989014	91.11228236637584	2.2726174569935584	0.9964739803133758
0.01545608639400901	1.820290885537854e-24	3.0310342068808746e8	9.555936745231901e24	90.03856832989014	91.11228236637584	2.2726174569935584	0.9964739803133758
0.015516834786377146	1.8503047825585323e-24	3.0310342068808746e8	9.555936745231901e24	90.03856832989014	91.11228236637584	2.2726174569935584	0.9964739803133758
0.015577821943402858	1.8806875086307673e-24	3.0310342068808746e8	9.555936745231901e24	90.03856832989014	91.11228236637584	2.2726174569935584	0.9964739803133758
0.015639048803523518	1.911442489246364e-24	3.0310342068808746e8	9.555936745231901e24	90.03856832989014	91.11228236637584	2.2726174569935584	0.9964739803133758
0.015700516308864914	1.9425731789228755e-24	3.0310342068808746e8	9.555936745231901e24	90.03856832989014	91.11228236637584	2.2726174569935584	0.9964739803133758
0.015762225405255768	1.974083061440258e-24	3.0310342068808746e8	9.555936745231901e24	90.03856832989014	91.11228236637584	2.2726174569935584	0.9964739803133758
0.01582417704224226	2.0059756500794134e-24	3.0310342068808746e8	9.555936745231901e24	90.03856832989014	91.11228236637584	2.2726174569935584	0.9964739803133758
0.015886372173102657	2.038254487862653e-24	3.0310342068808746e8	9.555936745231901e24	90.03856832989014	91.11228236637584	2.2726174569935584	0.9964739803133758
0.015948811754861982	2.0709231477960868e-24	3.0310342068808746e8	9.555936745231901e24	90.03856832989014	91.11228236637584	2.2726174569935584	0.9964739803133758
0.01601149674830673	2.1039852331139463e-24	3.0310342068808746e8	9.555936745231901e24	90.03856832989014	91.11228236637584	2.2726174569935584	0.9964739803133758
0.01607442811799966	2.1374443775248704e-24	3.0310342068808746e8	9.555936745231901e24	90.03856832989014	91.11228236637584	2.2726174569935584	0.9964739803133758
0.01613760683229464	2.171304245460158e-24	3.0310342068808746e8	9.555936745231901e24	90.03856832989014	91.11228236637584	2.2726174569935584	0.9964739803133758
0.016201033863351543	2.2055685323240166e-24	3.0310342068808746e8	9.555936745231901e24	90.03856832989014	91.11228236637584	2.2726174569935584	0.9964739803133758
0.0162647101871512	2.2402409647458022e-24	3.0310342068808746e8	9.555936745231901e24	90.03856832989014	91.11228236637584	2.2726174569935584	0.9964739803133758
