r[m]	M[Msun]	rho[g/cm^3]	P[N/m^2]	n_e[pm^-3]	n_p[pm^-3]	muF_e[MeV]	B
0.01	2.689441234967945e-40	2.377661902652113e8	6.877676925291092e24	70.63403228983441	71.47812008828079	2.063855042476424	0.9967752756264756
0.010039421046518969	6.013464044561061e-27	2.377661902652113e8	6.877676925291092e24	70.63403228983441	71.47812008828079	2.063855042476424	0.9967752756264756
0.010078997494928844	1.2219171626242138e-26	2.377661902652113e8	6.877676925291092e24	70.63403228983441	71.47812008828079	2.063855042476424	0.9967752756264756
0.010118729957840059	1.8595146060799417e-26	2.377661902652113e8	6.877676925291092e24	70.63403228983441	71.47812008828079	2.063855042476424	0.9967752756264756
0.010158619050278189	2.511885869780004e-26	2.377661902652113e8	6.877676925291092e24	70.63403228983441	71.47812008828079	2.063855042476424	0.9967752756264756
0.010198665389693138	3.1767219676132374e-26	2.377661902652113e8	6.877676925291092e24	70.63403228983441	71.47812008828079	2.063855042476424	0.9967752756264756
0.010238869595969027	3.851656854705381e-26	2.377661902652113e8	6.877676925291092e24	70.63403228983441	71.47812008828079	2.063855042476424	0.9967752756264756
0.010279232291433462	4.534266476281373e-26	2.377661902652113e8	6.877676925291092e24	70.63403228983441	71.47812008828079	2.063855042476424	0.9967752756264756
0.010319754100867492	5.222067802927982e-26	2.377661902652113e8	6.877676925291092e24	70.63403228983441	71.47812008828079	2.063855042476424	0.9967752756264756
0.010360435651514953	5.912517852054431e-26	2.377661902652113e8	6.877676925291092e24	70.63403228983441	71.47812008828079	2.063855042476424	0.9967752756264756
0.010401277573092468	6.603012695389774e-26	2.377661902652113e8	6.877676925291092e24	70.63403228983441	71.47812008828079	2.063855042476424	0.9967752756264756
0.010442280497799068	7.290886452314163e-26	2.377661902652113e8	6.877676925291092e24	70.63403228983441	71.47812008828079	2.063855042476424	0.9967752756264756
0.010483445060325853	7.973668380569262e-26	2.377661902652113e8	6.877676925291092e24	70.63403228983441	71.47812008828079	2.063855042476424	0.9967752756264756
0.010524771897866112	8.668368313285941e-26	2.377661902652113e8	6.877676925291092e24	70.63403228983441	71.47812008828079	2.063855042476424	0.9967752756264756
0.010566261650124842	9.384700786320648e-26	2.377661902652113e8	6.877676925291092e24	70.63403228983441	71.47812008828079	2.063855042476424	0.9967752756264756
0.010607914959329001	1.0119998051277864e-25	2.377661902652113e8	6.877676925291092e24	70.63403228983441	71.47812008828079	2.063855042476424	0.9967752756264756
0.0106497324702371	1.0871525636196897e-25	2.377661902652113e8	6.877676925291092e24	70.63403228983441	71.47812008828079	2.063855042476424	0.9967752756264756
0.010691714830149477	1.1636481229375177e-25	2.377661902652113e8	6.877676925291092e24	70.63403228983441	71.47812008828079	2.063855042476424	0.9967752756264756
0.010733862688918207	1.241199354718714e-25	2.377661902652113e8	6.877676925291092e24	70.63403228983441	71.47812008828079	2.063855042476424	0.9967752756264756
0.010776176698957014	1.3195121185692473e-25	2.377661902652113e8	6.877676925291092e24	70.63403228983441	71.47812008828079	2.063855042476424	0.9967752756264756
0.010818657515251677	1.3982851455828193e-25	2.377661902652113e8	6.877676925291092e24	70.63403228983441	71.47812008828079	2.063855042476424	0.9967752756264756
0.010861305795369829	1.4772099201945914e-25	2.377661902652113e8	6.877676925291092e24	70.63403228983441	71.47812008828079	2.063855042476424	0.9967752756264756
0.010904122199471476	1.5559705603499011e-25	2.377661902652113e8	6.877676925291092e24	70.63403228983441	71.47812008828079	2.063855042476424	0.9967752756264756
0.010947107390318863	1.6342436959629865e-25	2.377661902652113e8	6.877676925291092e24	70.63403228983441	71.47812008828079	2.063855042476424	0.9967752756264756
0.010990262033287098	1.7128625128605753e-25	2.377661902652113e8	6.877676925291092e24	70.63403228983441	71.47812008828079	2.063855042476424	0.9967752756264756
0.011033586796374084	1.7941403098150751e-25	2.377661902652113e8	6.877676925291092e24	70.63403228983441	71.47812008828079	2.063855042476424	0.9967752756264756
0.011077082350211178	1.8780191365880978e-25	2.377661902652113e8	6.877676925291092e24	70.63403228983441	71.47812008828079	2.063855042476424	0.9967752756264756
0.011120749368073436	1.9643488776047172e-25	2.377661902652113e8	6.877676925291092e24	70.63403228983441	71.47812008828079	2.063855042476424	0.9967752756264756
0.011164588525889895	2.052975440672759e-25	2.377661902652113e8	6.877676925291092e24	70.63403228983441	71.47812008828079	2.063855042476424	0.9967752756264756
0.011208600502254366	2.14374068942113e-25	2.377661902652113e8	6.877676925291092e24	70.63403228983441	71.47812008828079	2.063855042476424	0.9967752756264756
0.011252785978435554	2.2364823747619495e-25	2.377661902652113e8	6.877676925291092e24	70.63403228983441	71.47812008828079	2.063855042476424	0.9967752756264756
0.011297145638387992	2.3310340653664333e-25	2.377661902652113e8	6.877676925291092e24	70.63403228983441	71.47812008828079	2.063855042476424	0.9967752756264756
0.011341680168762237	2.427225077138296e-25	2.377661902652113e8	6.877676925291092e24	70.63403228983441	71.47812008828079	2.063855042476424	0.9967752756264756
0.011386390258915885	2.5248804016744933e-25	2.377661902652113e8	6.877676925291092e24	70.63403228983441	71.47812008828079	2.063855042476424	0.9967752756264756
0.011431276600923872	2.6238206336966594e-25	2.377661902652113e8	6.877676925291092e24	70.63403228983441	71.47812008828079	2.063855042476424	0.9967752756264756
0.011476339889589493	2.723861897442583e-25	2.377661902652113e8	6.877676925291092e24	70.63403228983441	71.47812008828079	2.063855042476424	0.9967752756264756
0.011521580822455038	2.8248157720015977e-25	2.377661902652113e8	6.877676925291092e24	70.63403228983441	71.47812008828079	2.063855042476424	0.9967752756264756
0.011567000099812444	2.926489215580597e-25	2.377661902652113e8	6.877676925291092e24	70.63403228983441	71.47812008828079	2.063855042476424	0.9967752756264756
0.011612598424714453	3.0286844886877335e-25	2.377661902652113e8	6.877676925291092e24	70.63403228983441	71.47812008828079	2.063855042476424	0.9967752756264756
0.01165837650298513	3.1311990762167937e-25	2.377661902652113e8	6.877676925291092e24	70.63403228983441	71.47812008828079	2.063855042476424	0.9967752756264756
0.01170433504323116	3.2338256084208547e-25	2.377661902652113e8	6.877676925291092e24	70.63403228983441	71.47812008828079	2.063855042476424	0.9967752756264756
0.01175047475685244	3.3363517807572826e-25	2.377661902652113e8	6.877676925291092e24	70.63403228983441	71.47812008828079	2.063855042476424	0.9967752756264756
0.011796796358053424	3.438560272592208e-25	2.377661902652113e8	6.877676925291092e24	70.63403228983441	71.47812008828079	2.063855042476424	0.9967752756264756
0.011843300563854034	3.5402286647469503e-25	2.377661902652113e8	6.877676925291092e24	70.63403228983441	71.47812008828079	2.063855042476424	0.9967752756264756
0.011889988094100615	3.6411293558719812e-25	2.377661902652113e8	6.877676925291092e24	70.63403228983441	71.47812008828079	2.063855042476424	0.9967752756264756
0.011936859671477416	3.7416512963514056e-25	2.377661902652113e8	6.877676925291092e24	70.63403228983441	71.47812008828079	2.063855042476424	0.9967752756264756
0.011983916021517386	3.8451605029351305e-25	2.377661902652113e8	6.877676925291092e24	70.63403228983441	71.47812008828079	2.063855042476424	0.9967752756264756
0.0120311578726138	3.9520251360042474e-25	2.377661902652113e8	6.877676925291092e24	70.63403228983441	71.47812008828079	2.063855042476424	0.9967752756264756
0.012078585956031136	4.0620340252850474e-25	2.377661902652113e8	6.877676925291092e24	70.63403228983441	71.47812008828079	2.063855042476424	0.9967752756264756
0.012126201005916791	4.174970454644213e-25	2.377661902652113e8	6.877676925291092e24	70.63403228983441	71.47812008828079	2.063855042476424	0.9967752756264756
0.012174003759312052	4.290612068075671e-25	2.377661902652113e8	6.877676925291092e24	70.63403228983441	71.47812008828079	2.063855042476424	0.9967752756264756
0.012221994956163844	4.408730774334074e-25	2.377661902652113e8	6.877676925291092e24	70.63403228983441	71.47812008828079	2.063855042476424	0.9967752756264756
0.012270175339336047	4.529092650193949e-25	2.377661902652113e8	6.877676925291092e24	70.63403228983441	71.47812008828079	2.063855042476424	0.9967752756264756
0.012318545654620835	4.651457842317379e-25	2.377661902652113e8	6.877676925291092e24	70.63403228983441	71.47812008828079	2.063855042476424	0.9967752756264756
0.012367106650750567	4.775580467713002e-25	2.377661902652113e8	6.877676925291092e24	70.63403228983441	71.47812008828079	2.063855042476424	0.9967752756264756
0.012415859079408996	4.901208512764502e-25	2.377661902652113e8	6.877676925291092e24	70.63403228983441	71.47812008828079	2.063855042476424	0.9967752756264756
0.012464803695243281	5.028083730813359e-25	2.377661902652113e8	6.877676925291092e24	70.63403228983441	71.47812008828079	2.063855042476424	0.9967752756264756
0.01251394125587528	5.155941538272808e-25	2.377661902652113e8	6.877676925291092e24	70.63403228983441	71.47812008828079	2.063855042476424	0.9967752756264756
0.01256327252191368	5.284510909257444e-25	2.377661902652113e8	6.877676925291092e24	70.63403228983441	71.47812008828079	2.063855042476424	0.9967752756264756
0.012612798256965364	5.413514268704717e-25	2.377661902652113e8	6.877676925291092e24	70.63403228983441	71.47812008828079	2.063855042476424	0.9967752756264756
0.012662519227647584	5.542667383972404e-25	2.377661902652113e8	6.877676925291092e24	70.63403228983441	71.47812008828079	2.063855042476424	0.9967752756264756
0.012712436203599678	5.671679254888473e-25	2.377661902652113e8	6.877676925291092e24	70.63403228983441	71.47812008828079	2.063855042476424	0.9967752756264756
0.012762549957494828	5.800252002234348e-25	2.377661902652113e8	6.877676925291092e24	70.63403228983441	71.47812008828079	2.063855042476424	0.9967752756264756
0.012812861265052388	5.928080754641975e-25	2.377661902652113e8	6.877676925291092e24	70.63403228983441	71.47812008828079	2.063855042476424	0.9967752756264756
0.012863370905049458	6.054853533880479e-25	2.377661902652113e8	6.877676925291092e24	70.63403228983441	71.47812008828079	2.063855042476424	0.9967752756264756
0.012914079659333381	6.181557209937598e-25	2.377661902652113e8	6.877676925291092e24	70.63403228983441	71.47812008828079	2.063855042476424	0.9967752756264756
0.012964988312833405	6.310108784550392e-25	2.377661902652113e8	6.877676925291092e24	70.63403228983441	71.47812008828079	2.063855042476424	0.9967752756264756
0.013016097653573214	6.440549704840718e-25	2.377661902652113e8	6.877676925291092e24	70.63403228983441	71.47812008828079	2.063855042476424	0.9967752756264756
0.01306740847268296	6.5728983408578625e-25	2.377661902652113e8	6.877676925291092e24	70.63403228983441	71.47812008828079	2.063855042476424	0.9967752756264756
0.013118921564411362	6.707173221348893e-25	2.377661902652113e8	6.877676925291092e24	70.63403228983441	71.47812008828079	2.063855042476424	0.9967752756264756
0.013170637726138348	6.843393035066686e-25	2.377661902652113e8	6.877676925291092e24	70.63403228983441	71.47812008828079	2.063855042476424	0.9967752756264756
0.013222557758387007	6.981576632086688e-25	2.377661902652113e8	6.877676925291092e24	70.63403228983441	71.47812008828079	2.063855042476424	0.9967752756264756
0.013274682464836372	7.121743025136333e-25	2.377661902652113e8	6.877676925291092e24	70.63403228983441	71.47812008828079	2.063855042476424	0.9967752756264756
0.013327012652333457	7.263911390932975e-25	2.377661902652113e8	6.877676925291092e24	70.63403228983441	71.47812008828079	2.063855042476424	0.9967752756264756
0.013379549130906162	7.408101071534921e-25	2.377661902652113e8	6.877676925291092e24	70.63403228983441	71.47812008828079	2.063855042476424	0.9967752756264756
0.013432292713775391	7.554331575701058e-25	2.377661902652113e8	6.877676925291092e24	70.63403228983441	71.47812008828079	2.063855042476424	0.9967752756264756
0.013485244217368004	7.702622580263471e-25	2.377661902652113e8	6.877676925291092e24	70.63403228983441	71.47812008828079	2.063855042476424	0.9967752756264756
0.013538404461329308	7.8529939315098875e-25	2.377661902652113e8	6.877676925291092e24	70.63403228983441	71.47812008828079	2.063855042476424	0.9967752756264756
0.013591774268535577	8.005465646577043e-25	2.377661902652113e8	6.877676925291092e24	70.63403228983441	71.47812008828079	2.063855042476424	0.9967752756264756
0.013645354465107158	8.160057914856867e-25	2.377661902652113e8	6.877676925291092e24	70.63403228983441	71.47812008828079	2.063855042476424	0.9967752756264756
0.013699145880420838	8.316791099411787e-25	2.377661902652113e8	6.877676925291092e24	70.63403228983441	71.47812008828079	2.063855042476424	0.9967752756264756
0.013753149347123114	8.475685738403717e-25	2.377661902652113e8	6.877676925291092e24	70.63403228983441	71.47812008828079	2.063855042476424	0.9967752756264756
0.01380736570114264	8.636762546532234e-25	2.377661902652113e8	6.877676925291092e24	70.63403228983441	71.47812008828079	2.063855042476424	0.9967752756264756
0.013861795781703611	8.800042416486778e-25	2.377661902652113e8	6.877676925291092e24	70.63403228983441	71.47812008828079	2.063855042476424	0.9967752756264756
0.013916440431338307	8.965546420407985e-25	2.377661902652113e8	6.877676925291092e24	70.63403228983441	71.47812008828079	2.063855042476424	0.9967752756264756
0.013971300495900533	9.133295811363267e-25	2.377661902652113e8	6.877676925291092e24	70.63403228983441	71.47812008828079	2.063855042476424	0.9967752756264756
0.014026376824578529	9.303312024832548e-25	2.377661902652113e8	6.877676925291092e24	70.63403228983441	71.47812008828079	2.063855042476424	0.9967752756264756
0.014081670269907956	9.475616680206076e-25	2.377661902652113e8	6.877676925291092e24	70.63403228983441	71.47812008828079	2.063855042476424	0.9967752756264756
0.014137181687785494	9.650231582295839e-25	2.377661902652113e8	6.877676925291092e24	70.63403228983441	71.47812008828079	2.063855042476424	0.9967752756264756
0.014192911937481626	9.827178722856755e-25	2.377661902652113e8	6.877676925291092e24	70.63403228983441	71.47812008828079	2.063855042476424	0.9967752756264756
0.014248861881654392	1.0006480282122687e-24	2.377661902652113e8	6.877676925291092e24	70.63403228983441	71.47812008828079	2.063855042476424	0.9967752756264756
0.014305032386362295	1.018815863035214e-24	2.377661902652113e8	6.877676925291092e24	70.63403228983441	71.47812008828079	2.063855042476424	0.9967752756264756
0.014361424321078111	1.03722363293891e-24	2.377661902652113e8	6.877676925291092e24	70.63403228983441	71.47812008828079	2.063855042476424	0.9967752756264756
0.014418038558702153	1.0558736134234456e-24	2.377661902652113e8	6.877676925291092e24	70.63403228983441	71.47812008828079	2.063855042476424	0.9967752756264756
0.014474875975575643	1.0747680994630274e-24	2.377661902652113e8	6.877676925291092e24	70.63403228983441	71.47812008828079	2.063855042476424	0.9967752756264756
0.014531937451494647	1.093909405665846e-24	2.377661902652113e8	6.877676925291092e24	70.63403228983441	71.47812008828079	2.063855042476424	0.9967752756264756
0.014589223869723259	1.1132998664349717e-24	2.377661902652113e8	6.877676925291092e24	70.63403228983441	71.47812008828079	2.063855042476424	0.9967752756264756
0.014646736117007718	1.1329418361308239e-24	2.377661902652113e8	6.877676925291092e24	70.63403228983441	71.47812008828079	2.063855042476424	0.9967752756264756
0.014704475083589678	1.1528376892346564e-24	2.377661902652113e8	6.877676925291092e24	70.63403228983441	71.47812008828079	2.063855042476424	0.9967752756264756
0.01476244166322046	1.172989820513662e-24	2.377661902652113e8	6.877676925291092e24	70.63403228983441	71.47812008828079	2.063855042476424	0.9967752756264756
0.014820636753174396	1.1934006451870911e-24	2.377661902652113e8	6.877676925291092e24	70.63403228983441	71.47812008828079	2.063855042476424	0.9967752756264756
0.014879061254263156	1.214072599094007e-24	2.377661902652113e8	6.877676925291092e24	70.63403228983441	71.47812008828079	2.063855042476424	0.9967752756264756
0.014937716070849507	1.2350081388621907e-24	2.377661902652113e8	6.877676925291092e24	70.63403228983441	71.47812008828079	2.063855042476424	0.9967752756264756
0.014996602110861115	1.2562097420783898e-24	2.377661902652113e8	6.877676925291092e24	70.63403228983441	71.47812008828079	2.063855042476424	0.9967752756264756
0.015055720285805048	1.277679907460169e-24	2.377661902652113e8	6.877676925291092e24	70.63403228983441	71.47812008828079	2.063855042476424	0.9967752756264756
0.015115071510781378	1.2994211550287964e-24	2.377661902652113e8	6.877676925291092e24	70.63403228983441	71.47812008828079	2.063855042476424	0.9967752756264756
0.015174656704497844	1.3214360262838912e-24	2.377661902652113e8	6.877676925291092e24	70.63403228983441	71.47812008828079	2.063855042476424	0.9967752756264756
0.015234476789283581	1.3437270843791068e-24	2.377661902652113e8	6.877676925291092e24	70.63403228983441	71.47812008828079	2.063855042476424	0.9967752756264756
0.015294532691103894	1.366296914299588e-24	2.377661902652113e8	6.877676925291092e24	70.63403228983441	71.47812008828079	2.063855042476424	0.9967752756264756
0.015354825339574081	1.389148123040492e-24	2.377661902652113e8	6.877676925291092e24	70.63403228983441	71.47812008828079	2.063855042476424	0.9967752756264756
0.01541535566797428	1.4122833397872945e-24	2.377661902652113e8	6.877676925291092e24	70.63403228983441	71.47812008828079	2.063855042476424	0.9967752756264756
0.015476124613263706	1.4357052160973004e-24	2.377661902652113e8	6.877676925291092e24	70.63403228983441	71.47812008828079	2.063855042476424	0.9967752756264756
0.01553713311609499	1.4594164260826279e-24	2.377661902652113e8	6.877676925291092e24	70.63403228983441	71.47812008828079	2.063855042476424	0.9967752756264756
0.015598382120829151	1.4834196665948843e-24	2.377661902652113e8	6.877676925291092e24	70.63403228983441	71.47812008828079	2.063855042476424	0.9967752756264756
0.015659872575549738	1.5077176574109787e-24	2.377661902652113e8	6.877676925291092e24	70.63403228983441	71.47812008828079	2.063855042476424	0.9967752756264756
0.015721605432077984	1.5323131414208122e-24	2.377661902652113e8	6.877676925291092e24	70.63403228983441	71.47812008828079	2.063855042476424	0.9967752756264756
0.015783581645987067	1.5572088848160806e-24	2.377661902652113e8	6.877676925291092e24	70.63403228983441	71.47812008828079	2.063855042476424	0.9967752756264756
0.015845802176617307	1.5824076772809668e-24	2.377661902652113e8	6.877676925291092e24	70.63403228983441	71.47812008828079	2.063855042476424	0.9967752756264756
0.01590826798709085	1.6079123321841187e-24	2.377661902652113e8	6.877676925291092e24	70.63403228983441	71.47812008828079	2.063855042476424	0.9967752756264756
0.015970980044326382	1.6337256867721629e-24	2.377661902652113e8	6.877676925291092e24	70.63403228983441	71.47812008828079	2.063855042476424	0.9967752756264756
0.016033939319054537	1.6598506023650344e-24	2.377661902652113e8	6.877676925291092e24	70.63403228983441	71.47812008828079	2.063855042476424	0.9967752756264756
0.016097146785832413	1.686289964552479e-24	2.377661902652113e8	6.877676925291092e24	70.63403228983441	71.47812008828079	2.063855042476424	0.9967752756264756
0.016160603423059177	1.713046683392566e-24	2.377661902652113e8	6.877676925291092e24	70.63403228983441	71.47812008828079	2.063855042476424	0.9967752756264756
0.016224310212990676	1.74012369361135e-24	2.377661902652113e8	6.877676925291092e24	70.63403228983441	71.47812008828079	2.063855042476424	0.9967752756264756
0.016288268141755192	1.7675239548045992e-24	2.377661902652113e8	6.877676925291092e24	70.63403228983441	71.47812008828079	2.063855042476424	0.9967752756264756
0.016352478199368147	1.795250451640658e-24	2.377661902652113e8	6.877676925291092e24	70.63403228983441	71.47812008828079	2.063855042476424	0.9967752756264756
