r[m]	M[Msun]	rho[g/cm^3]	P[N/m^2]	n_e[pm^-3]	n_p[pm^-3]	muF_e[MeV]	B
0.00999999999999999	-6.906485091397683e-38	1.1949808489142574e10	1.327325885484365e27	3564.23633373331	10748.950058755827	8.828694247593326	0.9873229587795331
0.010037349128901718	2.8555247914152113e-25	1.1949808489142574e10	1.327325885484365e27	3564.23633373331	10748.950058755827	8.828694247593326	0.9873229587795331
0.010074837753546418	5.766825112289599e-25	1.1949808489142574e10	1.327325885484365e27	3564.23633373331	10748.950058755827	8.828694247593326	0.9873229587795331
0.010112466394938539	8.69392558209815e-25	1.1949808489142574e10	1.327325885484365e27	3564.23633373331	10748.950058755827	8.828694247593326	0.9873229587795331
0.010150235576028434	1.1640242272721192e-24	1.1949808489142574e10	1.327325885484365e27	3564.23633373331	10748.950058755827	8.828694247593326	0.9873229587795331
0.010188145821719632	1.4649140134652987e-24	1.1949808489142574e10	1.327325885484365e27	3564.23633373331	10748.950058755827	8.828694247593326	0.9873229587795331
0.010226197658876135	1.7680922260062574e-24	1.1949808489142574e10	1.327325885484365e27	3564.23633373331	10748.950058755827	8.828694247593326	0.9873229587795331
0.010264391616329725	2.0710921525407445e-24	1.1949808489142574e10	1.327325885484365e27	3564.23633373331	10748.950058755827	8.828694247593326	0.9873229587795331
0.010302728224887337	2.377198651378968e-24	1.1949808489142574e10	1.327325885484365e27	3564.23633373331	10748.950058755827	8.828694247593326	0.9873229587795331
0.010341208017338415	2.6867598427909655e-24	1.1949808489142574e10	1.327325885484365e27	3564.23633373331	10748.950058755827	8.828694247593326	0.9873229587795331
0.010379831528462374	2.9998059278370862e-24	1.1949808489142574e10	1.327325885484365e27	3564.23633373331	10748.950058755827	8.828694247593326	0.9873229587795331
0.01041859929503585	3.3163673498299314e-24	1.1949808489142574e10	1.327325885484365e27	3564.23633373331	10748.950058755827	8.828694247593326	0.9873229587795331
0.010457511855840426	3.6364747962100385e-24	1.1949808489142574e10	1.327325885484365e27	3564.23633373331	10748.950058755827	8.828694247593326	0.9873229587795331
0.010496569751669939	3.9601663368445325e-24	1.1949808489142574e10	1.327325885484365e27	3564.23633373331	10748.950058755827	8.828694247593326	0.9873229587795331
0.010535773525338049	4.287514631293047e-24	1.1949808489142574e10	1.327325885484365e27	3564.23633373331	10748.950058755827	8.828694247593326	0.9873229587795331
0.010575123721685776	4.618558323594477e-24	1.1949808489142574e10	1.327325885484365e27	3564.23633373331	10748.950058755827	8.828694247593326	0.9873229587795331
0.010614620887589072	4.9533297214715584e-24	1.1949808489142574e10	1.327325885484365e27	3564.23633373331	10748.950058755827	8.828694247593326	0.9873229587795331
0.010654265571966427	5.2918613918063596e-24	1.1949808489142574e10	1.327325885484365e27	3564.23633373331	10748.950058755827	8.828694247593326	0.9873229587795331
0.010694058325786487	5.634186162644554e-24	1.1949808489142574e10	1.327325885484365e27	3564.23633373331	10748.950058755827	8.828694247593326	0.9873229587795331
0.010733999702075728	5.980343633027301e-24	1.1949808489142574e10	1.327325885484365e27	3564.23633373331	10748.950058755827	8.828694247593326	0.9873229587795331
0.010774090255926122	6.3304105009768504e-24	1.1949808489142574e10	1.327325885484365e27	3564.23633373331	10748.950058755827	8.828694247593326	0.9873229587795331
0.010814330544502867	6.684428915164047e-24	1.1949808489142574e10	1.327325885484365e27	3564.23633373331	10748.950058755827	8.828694247593326	0.9873229587795331
0.01085472112705212	7.042433421947982e-24	1.1949808489142574e10	1.327325885484365e27	3564.23633373331	10748.950058755827	8.828694247593326	0.9873229587795331
0.010895262564908777	7.404458844801986e-24	1.1949808489142574e10	1.327325885484365e27	3564.23633373331	10748.950058755827	8.828694247593326	0.9873229587795331
0.010935955421504271	7.770540286456764e-24	1.1949808489142574e10	1.327325885484365e27	3564.23633373331	10748.950058755827	8.828694247593326	0.9873229587795331
0.010976800262374404	8.140715955939555e-24	1.1949808489142574e10	1.327325885484365e27	3564.23633373331	10748.950058755827	8.828694247593326	0.9873229587795331
0.011017797655167198	8.515038840683715e-24	1.1949808489142574e10	1.327325885484365e27	3564.23633373331	10748.950058755827	8.828694247593326	0.9873229587795331
0.011058948169650798	8.893557336781048e-24	1.1949808489142574e10	1.327325885484365e27	3564.23633373331	10748.950058755827	8.828694247593326	0.9873229587795331
0.011100252377721382	9.27631916065376e-24	1.1949808489142574e10	1.327325885484365e27	3564.23633373331	10748.950058755827	8.828694247593326	0.9873229587795331
0.01114171085341115	9.663372571717251e-24	1.1949808489142574e10	1.327325885484365e27	3564.23633373331	10748.950058755827	8.828694247593326	0.9873229587795331
0.011183324172896133	1.0054766378541652e-23	1.1949808489142574e10	1.327325885484365e27	3564.23633373331	10748.950058755827	8.828694247593326	0.9873229587795331
0.011225092914504464	1.0450549945087318e-23	1.1949808489142574e10	1.327325885484365e27	3564.23633373331	10748.950058755827	8.828694247593326	0.9873229587795331
0.011267017658724234	1.0850773197006643e-23	1.1949808489142574e10	1.327325885484365e27	3564.23633373331	10748.950058755827	8.828694247593326	0.9873229587795331
0.011309098988211608	1.1255486628019396e-23	1.1949808489142574e10	1.327325885484365e27	3564.23633373331	10748.950058755827	8.828694247593326	0.9873229587795331
0.011351337487798919	1.1664741306359735e-23	1.1949808489142574e10	1.327325885484365e27	3564.23633373331	10748.950058755827	8.828694247593326	0.9873229587795331
0.011393733744502803	1.2078588881296263e-23	1.1949808489142574e10	1.327325885484365e27	3564.23633373331	10748.950058755827	8.828694247593326	0.9873229587795331
0.011436288347532342	1.2497081589725767e-23	1.1949808489142574e10	1.327325885484365e27	3564.23633373331	10748.950058755827	8.828694247593326	0.9873229587795331
0.011479001888297273	1.292027226284177e-23	1.1949808489142574e10	1.327325885484365e27	3564.23633373331	10748.950058755827	8.828694247593326	0.9873229587795331
0.011521874960416194	1.3348214332878498e-23	1.1949808489142574e10	1.327325885484365e27	3564.23633373331	10748.950058755827	8.828694247593326	0.9873229587795331
0.01156490815972481	1.3780961839930918e-23	1.1949808489142574e10	1.327325885484365e27	3564.23633373331	10748.950058755827	8.828694247593326	0.9873229587795331
0.011608102084284233	1.421856943885249e-23	1.1949808489142574e10	1.327325885484365e27	3564.23633373331	10748.950058755827	8.828694247593326	0.9873229587795331
0.011651457334389268	1.4661092406230454e-23	1.1949808489142574e10	1.327325885484365e27	3564.23633373331	10748.950058755827	8.828694247593326	0.9873229587795331
0.011694974512576777	1.5108586647440436e-23	1.1949808489142574e10	1.327325885484365e27	3564.23633373331	10748.950058755827	8.828694247593326	0.9873229587795331
0.011738654223634043	1.5561108703780732e-23	1.1949808489142574e10	1.327325885484365e27	3564.23633373331	10748.950058755827	8.828694247593326	0.9873229587795331
0.011782497074607174	1.6018715759687264e-23	1.1949808489142574e10	1.327325885484365e27	3564.23633373331	10748.950058755827	8.828694247593326	0.9873229587795331
0.011826503674809549	1.6481465650030394e-23	1.1949808489142574e10	1.327325885484365e27	3564.23633373331	10748.950058755827	8.828694247593326	0.9873229587795331
0.011870674635830272	1.6949416867494133e-23	1.1949808489142574e10	1.327325885484365e27	3564.23633373331	10748.950058755827	8.828694247593326	0.9873229587795331
0.011915010571542681	1.7422628570038937e-23	1.1949808489142574e10	1.327325885484365e27	3564.23633373331	10748.950058755827	8.828694247593326	0.9873229587795331
0.01195951209811293	1.7901160588449428e-23	1.1949808489142574e10	1.327325885484365e27	3564.23633373331	10748.950058755827	8.828694247593326	0.9873229587795331
0.012004179834008349	1.838507343396501e-23	1.1949808489142574e10	1.327325885484365e27	3564.23633373331	10748.950058755827	8.828694247593326	0.9873229587795331
0.01204901440000634	1.8874428306001957e-23	1.1949808489142574e10	1.327325885484365e27	3564.23633373331	10748.950058755827	8.828694247593326	0.9873229587795331
0.012094016419202804	1.9369287099957588e-23	1.1949808489142574e10	1.327325885484365e27	3564.23633373331	10748.950058755827	8.828694247593326	0.9873229587795331
0.012139186517020844	1.9869712415105553e-23	1.1949808489142574e10	1.327325885484365e27	3564.23633373331	10748.950058755827	8.828694247593326	0.9873229587795331
0.012184525321219478	2.0375767562579934e-23	1.1949808489142574e10	1.327325885484365e27	3564.23633373331	10748.950058755827	8.828694247593326	0.9873229587795331
0.012230033461902337	2.0887516573449356e-23	1.1949808489142574e10	1.327325885484365e27	3564.23633373331	10748.950058755827	8.828694247593326	0.9873229587795331
0.012275711571526442	2.1405024206882874e-23	1.1949808489142574e10	1.327325885484365e27	3564.23633373331	10748.950058755827	8.828694247593326	0.9873229587795331
0.012321560284910979	2.1928355958407864e-23	1.1949808489142574e10	1.327325885484365e27	3564.23633373331	10748.950058755827	8.828694247593326	0.9873229587795331
0.012367580239246136	2.2457578068261814e-23	1.1949808489142574e10	1.327325885484365e27	3564.23633373331	10748.950058755827	8.828694247593326	0.9873229587795331
0.012413772074101942	2.299275752983798e-23	1.1949808489142574e10	1.327325885484365e27	3564.23633373331	10748.950058755827	8.828694247593326	0.9873229587795331
0.012460136431437173	2.3533962098227294e-23	1.1949808489142574e10	1.327325885484365e27	3564.23633373331	10748.950058755827	8.828694247593326	0.9873229587795331
0.012506673955608259	2.4081260298856254e-23	1.1949808489142574e10	1.327325885484365e27	3564.23633373331	10748.950058755827	8.828694247593326	0.9873229587795331
0.01255338529337825	2.463472143622308e-23	1.1949808489142574e10	1.327325885484365e27	3564.23633373331	10748.950058755827	8.828694247593326	0.9873229587795331
0.012600271093925792	2.5194415602732134e-23	1.1949808489142574e10	1.327325885484365e27	3564.23633373331	10748.950058755827	8.828694247593326	0.9873229587795331
0.012647332008854194	2.5760413687629365e-23	1.1949808489142574e10	1.327325885484365e27	3564.23633373331	10748.950058755827	8.828694247593326	0.9873229587795331
0.01269456869220036	2.6332787386036396e-23	1.1949808489142574e10	1.327325885484365e27	3564.23633373331	10748.950058755827	8.828694247593326	0.9873229587795331
0.012741981800444044	2.691160920809059e-23	1.1949808489142574e10	1.327325885484365e27	3564.23633373331	10748.950058755827	8.828694247593326	0.9873229587795331
0.012789571992516869	2.749695248818502e-23	1.1949808489142574e10	1.327325885484365e27	3564.23633373331	10748.950058755827	8.828694247593326	0.9873229587795331
0.012837339929811512	2.808889139431478e-23	1.1949808489142574e10	1.327325885484365e27	3564.23633373331	10748.950058755827	8.828694247593326	0.9873229587795331
0.012885286276190896	2.8687500937528444e-23	1.1949808489142574e10	1.327325885484365e27	3564.23633373331	10748.950058755827	8.828694247593326	0.9873229587795331
0.012933411697997409	2.9292856981486673e-23	1.1949808489142574e10	1.327325885484365e27	3564.23633373331	10748.950058755827	8.828694247593326	0.9873229587795331
0.012981716864062172	2.9905036252128633e-23	1.1949808489142574e10	1.327325885484365e27	3564.23633373331	10748.950058755827	8.828694247593326	0.9873229587795331
0.01303020244571433	3.0524116347448175e-23	1.1949808489142574e10	1.327325885484365e27	3564.23633373331	10748.950058755827	8.828694247593326	0.9873229587795331
0.013078869116790418	3.115017574738056e-23	1.1949808489142574e10	1.327325885484365e27	3564.23633373331	10748.950058755827	8.828694247593326	0.9873229587795331
0.013127717553643602	3.1783293823799374e-23	1.1949808489142574e10	1.327325885484365e27	3564.23633373331	10748.950058755827	8.828694247593326	0.9873229587795331
0.013176748435153252	3.2423550850630076e-23	1.1949808489142574e10	1.327325885484365e27	3564.23633373331	10748.950058755827	8.828694247593326	0.9873229587795331
0.013225962442734272	3.3071028014074477e-23	1.1949808489142574e10	1.327325885484365e27	3564.23633373331	10748.950058755827	8.828694247593326	0.9873229587795331
0.013275360260346581	3.3725807422952245e-23	1.1949808489142574e10	1.327325885484365e27	3564.23633373331	10748.950058755827	8.828694247593326	0.9873229587795331
0.013324942574504638	3.43879721191596e-23	1.1949808489142574e10	1.327325885484365e27	3564.23633373331	10748.950058755827	8.828694247593326	0.9873229587795331
0.013374710074286967	3.505759947898128e-23	1.1949808489142574e10	1.327325885484365e27	3564.23633373331	10748.950058755827	8.828694247593326	0.9873229587795331
0.013424663451345745	3.573475851054759e-23	1.1949808489142574e10	1.327325885484365e27	3564.23633373331	10748.950058755827	8.828694247593326	0.9873229587795331
0.01347480339991641	3.641953330562197e-23	1.1949808489142574e10	1.327325885484365e27	3564.23633373331	10748.950058755827	8.828694247593326	0.9873229587795331
0.013525130616827303	3.7112009515951006e-23	1.1949808489142574e10	1.327325885484365e27	3564.23633373331	10748.950058755827	8.828694247593326	0.9873229587795331
0.01357564580150939	3.781227375657607e-23	1.1949808489142574e10	1.327325885484365e27	3564.23633373331	10748.950058755827	8.828694247593326	0.9873229587795331
0.013626349656005865	3.852041361666546e-23	1.1949808489142574e10	1.327325885484365e27	3564.23633373331	10748.950058755827	8.828694247593326	0.9873229587795331
0.013677242884982085	3.9236517670472574e-23	1.1949808489142574e10	1.327325885484365e27	3564.23633373331	10748.950058755827	8.828694247593326	0.9873229587795331
0.01372832619573523	3.9960675488412893e-23	1.1949808489142574e10	1.327325885484365e27	3564.23633373331	10748.950058755827	8.828694247593326	0.9873229587795331
0.013779600298204178	4.069297764826826e-23	1.1949808489142574e10	1.327325885484365e27	3564.23633373331	10748.950058755827	8.828694247593326	0.9873229587795331
0.01383106590497937	4.1433515746516085e-23	1.1949808489142574e10	1.327325885484365e27	3564.23633373331	10748.950058755827	8.828694247593326	0.9873229587795331
0.013882723731312706	4.2182382409786376e-23	1.1949808489142574e10	1.327325885484365e27	3564.23633373331	10748.950058755827	8.828694247593326	0.9873229587795331
0.013934574495127493	4.293967130644742e-23	1.1949808489142574e10	1.327325885484365e27	3564.23633373331	10748.950058755827	8.828694247593326	0.9873229587795331
0.01398661891702842	4.370547715832194e-23	1.1949808489142574e10	1.327325885484365e27	3564.23633373331	10748.950058755827	8.828694247593326	0.9873229587795331
0.014038857720311593	4.4479895752535196e-23	1.1949808489142574e10	1.327325885484365e27	3564.23633373331	10748.950058755827	8.828694247593326	0.9873229587795331
0.014091291630974487	4.526302395349446e-23	1.1949808489142574e10	1.327325885484365e27	3564.23633373331	10748.950058755827	8.828694247593326	0.9873229587795331
0.014143921377726198	4.6054959715007395e-23	1.1949808489142574e10	1.327325885484365e27	3564.23633373331	10748.950058755827	8.828694247593326	0.9873229587795331
0.014196747691997458	4.685580209253236e-23	1.1949808489142574e10	1.327325885484365e27	3564.23633373331	10748.950058755827	8.828694247593326	0.9873229587795331
0.01424977130795083	4.766565125556873e-23	1.1949808489142574e10	1.327325885484365e27	3564.23633373331	10748.950058755827	8.828694247593326	0.9873229587795331
0.01430299296249091	4.848460850018617e-23	1.1949808489142574e10	1.327325885484365e27	3564.23633373331	10748.950058755827	8.828694247593326	0.9873229587795331
0.014356413395274568	4.931277626169474e-23	1.1949808489142574e10	1.327325885484365e27	3564.23633373331	10748.950058755827	8.828694247593326	0.9873229587795331
0.014410033348721232	5.015025812745744e-23	1.1949808489142574e10	1.327325885484365e27	3564.23633373331	10748.950058755827	8.828694247593326	0.9873229587795331
0.014463853568023188	5.0997158849846927e-23	1.1949808489142574e10	1.327325885484365e27	3564.23633373331	10748.950058755827	8.828694247593326	0.9873229587795331
0.014517874801155971	5.1853584359348294e-23	1.1949808489142574e10	1.327325885484365e27	3564.23633373331	10748.950058755827	8.828694247593326	0.9873229587795331
0.014572097798888753	5.2719641777808804e-23	1.1949808489142574e10	1.327325885484365e27	3564.23633373331	10748.950058755827	8.828694247593326	0.9873229587795331
0.014626523314794682	5.35954394318353e-23	1.1949808489142574e10	1.327325885484365e27	3564.23633373331	10748.950058755827	8.828694247593326	0.9873229587795331
0.014681152105261521	5.448108686634608e-23	1.1949808489142569e10	1.327325885484364e27	3564.236333733307	10748.95005875582	8.828694247593322	0.9873229587795331
0.01473598492950205	5.537669485827156e-23	1.1949808489142569e10	1.327325885484364e27	3564.236333733307	10748.95005875582	8.828694247593322	0.9873229587795331
0.01479102254956464	5.628237543041e-23	1.1949808489142569e10	1.327325885484364e27	3564.236333733307	10748.95005875582	8.828694247593322	0.9873229587795331
0.014846265730343847	5.719824186543992e-23	1.1949808489142569e10	1.327325885484364e27	3564.236333733307	10748.95005875582	8.828694247593322	0.9873229587795331
0.014901715239591039	5.812440872008909e-23	1.1949808489142569e10	1.327325885484364e27	3564.236333733307	10748.95005875582	8.828694247593322	0.9873229587795331
0.014957371847925071	5.906099183946366e-23	1.1949808489142569e10	1.327325885484364e27	3564.236333733307	10748.95005875582	8.828694247593322	0.9873229587795331
0.015013236328842997	6.00081083715379e-23	1.1949808489142569e10	1.327325885484364e27	3564.236333733307	10748.95005875582	8.828694247593322	0.9873229587795331
0.015069309458730832	6.096587678180753e-23	1.1949808489142569e10	1.327325885484364e27	3564.236333733307	10748.95005875582	8.828694247593322	0.9873229587795331
0.01512559201687425	6.193441686810558e-23	1.1949808489142569e10	1.327325885484364e27	3564.236333733307	10748.95005875582	8.828694247593322	0.9873229587795331
0.015182084785469568	6.291384977558953e-23	1.1949808489142569e10	1.327325885484364e27	3564.236333733307	10748.95005875582	8.828694247593322	0.9873229587795331
0.015238788549634515	6.390429801189238e-23	1.1949808489142569e10	1.327325885484364e27	3564.236333733307	10748.95005875582	8.828694247593322	0.9873229587795331
0.015295704097419163	6.490588546244626e-23	1.1949808489142569e10	1.327325885484364e27	3564.236333733307	10748.95005875582	8.828694247593322	0.9873229587795331
0.015352832219816884	6.591873740597813e-23	1.1949808489142569e10	1.327325885484364e27	3564.236333733307	10748.95005875582	8.828694247593322	0.9873229587795331
0.015410173710775337	6.694298053017948e-23	1.1949808489142569e10	1.327325885484364e27	3564.236333733307	10748.95005875582	8.828694247593322	0.9873229587795331
0.015467729367207516	6.797874294755284e-23	1.1949808489142569e10	1.327325885484364e27	3564.236333733307	10748.95005875582	8.828694247593322	0.9873229587795331
0.015525499989002803	6.902615421143567e-23	1.1949808489142569e10	1.327325885484364e27	3564.236333733307	10748.95005875582	8.828694247593322	0.9873229587795331
0.015583486379038107	7.008534533220515e-23	1.1949808489142569e10	1.327325885484364e27	3564.236333733307	10748.95005875582	8.828694247593322	0.9873229587795331
0.01564168934318904	7.115644879366563e-23	1.1949808489142569e10	1.327325885484364e27	3564.236333733307	10748.95005875582	8.828694247593322	0.9873229587795331
0.015700109690340996	7.22395985696172e-23	1.1949808489142569e10	1.327325885484364e27	3564.236333733307	10748.95005875582	8.828694247593322	0.9873229587795331
0.015758748232400577	7.333493014061673e-23	1.1949808489142569e10	1.327325885484364e27	3564.236333733307	10748.95005875582	8.828694247593322	0.9873229587795331
0.01581760578430676	7.444258051092157e-23	1.1949808489142569e10	1.327325885484364e27	3564.236333733307	10748.95005875582	8.828694247593322	0.9873229587795331
0.015876683164042237	7.556268822562639e-23	1.1949808489142569e10	1.327325885484364e27	3564.236333733307	10748.95005875582	8.828694247593322	0.9873229587795331
