r[m]	M[Msun]	rho[g/cm^3]	P[N/m^2]	n_e[pm^-3]	n_p[pm^-3]	muF_e[MeV]	B
0.010000000000000005	1.4576771493526262e-38	3.1559946164059463e9	2.2421177589411776e26	942.0612572613527	2842.625205532513	5.495611855015824	0.9919095817547768
0.010038102678112264	7.695320785096288e-26	3.1559946164059463e9	2.2421177589411776e26	942.0612572613527	2842.625205532513	5.495611855015824	0.9919095817547768
0.010076350537632455	1.554191037427484e-25	3.1559946164059463e9	2.2421177589411776e26	942.0612572613527	2842.625205532513	5.495611855015824	0.9919095817547768
0.010114744131740626	2.3427777123577197e-25	3.1559946164059463e9	2.2421177589411776e26	942.0612572613527	2842.625205532513	5.495611855015824	0.9919095817547768
0.01015328401572454	3.1377949343992023e-25	3.1559946164059463e9	2.2421177589411776e26	942.0612572613527	2842.625205532513	5.495611855015824	0.9919095817547768
0.010191970746987892	3.9494760344238647e-25	3.1559946164059463e9	2.2421177589411776e26	942.0612572613527	2842.625205532513	5.495611855015824	0.9919095817547768
0.010230804885058094	4.7663633436857485e-25	3.1559946164059463e9	2.2421177589411776e26	942.0612572613527	2842.625205532513	5.495611855015824	0.9919095817547768
0.010269786991594565	5.583422394240454e-25	3.1559946164059463e9	2.2421177589411776e26	942.0612572613527	2842.625205532513	5.495611855015824	0.9919095817547768
0.010308917630396784	6.409542945976443e-25	3.1559946164059463e9	2.2421177589411776e26	942.0612572613527	2842.625205532513	5.495611855015824	0.9919095817547768
0.010348197367412465	7.2451723082401145e-25	3.1559946164059463e9	2.2421177589411776e26	942.0612572613527	2842.625205532513	5.495611855015824	0.9919095817547768
0.01038762677074573	8.090395279257433e-25	3.1559946164059463e9	2.2421177589411776e26	942.0612572613527	2842.625205532513	5.495611855015824	0.9919095817547768
0.01042720641066533	8.945297351170804e-25	3.1559946164059463e9	2.2421177589411776e26	942.0612572613527	2842.625205532513	5.495611855015824	0.9919095817547768
0.010466936859612853	9.809964715513415e-25	3.1559946164059463e9	2.2421177589411776e26	942.0612572613527	2842.625205532513	5.495611855015824	0.9919095817547768
0.01050681869221117	1.0684525570277164e-24	3.1559946164059463e9	2.2421177589411776e26	942.0612572613527	2842.625205532513	5.495611855015824	0.9919095817547768
0.010546852485272488	1.1569173448375321e-24	3.1559946164059463e9	2.2421177589411776e26	942.0612572613527	2842.625205532513	5.495611855015824	0.9919095817547768
0.01058703881780687	1.246400358596477e-24	3.1559946164059463e9	2.2421177589411776e26	942.0612572613527	2842.625205532513	5.495611855015824	0.9919095817547768
0.010627378271030559	1.3369106786457725e-24	3.1559946164059463e9	2.2421177589411776e26	942.0612572613527	2842.625205532513	5.495611855015824	0.9919095817547768
0.010667871428374389	1.428457459632274e-24	3.1559946164059463e9	2.2421177589411776e26	942.0612572613527	2842.625205532513	5.495611855015824	0.9919095817547768
0.01070851887549222	1.5210499310947121e-24	3.1559946164059463e9	2.2421177589411776e26	942.0612572613527	2842.625205532513	5.495611855015824	0.9919095817547768
0.010749321200269413	1.6147026696420188e-24	3.1559946164059463e9	2.2421177589411776e26	942.0612572613527	2842.625205532513	5.495611855015824	0.9919095817547768
0.010790278992831285	1.709435471624537e-24	3.1559946164059463e9	2.2421177589411776e26	942.0612572613527	2842.625205532513	5.495611855015824	0.9919095817547768
0.010831392845551817	1.8052582464619857e-24	3.1559946164059463e9	2.2421177589411776e26	942.0612572613527	2842.625205532513	5.495611855015824	0.9919095817547768
0.010872663353061965	1.9021807133153614e-24	3.1559946164059463e9	2.2421177589411776e26	942.0612572613527	2842.625205532513	5.495611855015824	0.9919095817547768
0.010914091112258432	2.0002126708756184e-24	3.1559946164059463e9	2.2421177589411776e26	942.0612572613527	2842.625205532513	5.495611855015824	0.9919095817547768
0.010955676722312258	2.0993639990881564e-24	3.1559946164059463e9	2.2421177589411776e26	942.0612572613527	2842.625205532513	5.495611855015824	0.9919095817547768
0.010997420784677482	2.199647367171916e-24	3.1559946164059463e9	2.2421177589411776e26	942.0612572613527	2842.625205532513	5.495611855015824	0.9919095817547768
0.011039323903099845	2.3010774236056216e-24	3.1559946164059463e9	2.2421177589411776e26	942.0612572613527	2842.625205532513	5.495611855015824	0.9919095817547768
0.011081386683625523	2.4036674736918333e-24	3.1559946164059463e9	2.2421177589411776e26	942.0612572613527	2842.625205532513	5.495611855015824	0.9919095817547768
0.011123609734609843	2.5074309772108096e-24	3.1559946164059463e9	2.2421177589411776e26	942.0612572613527	2842.625205532513	5.495611855015824	0.9919095817547768
0.011165993666726265	2.612381550209883e-24	3.1559946164059463e9	2.2421177589411776e26	942.0612572613527	2842.625205532513	5.495611855015824	0.9919095817547768
0.011208539092974945	2.7185329668123955e-24	3.1559946164059463e9	2.2421177589411776e26	942.0612572613527	2842.625205532513	5.495611855015824	0.9919095817547768
0.011251246628691773	2.8258991610486073e-24	3.1559946164059463e9	2.2421177589411776e26	942.0612572613527	2842.625205532513	5.495611855015824	0.9919095817547768
0.011294116891557243	2.9344942287072746e-24	3.1559946164059463e9	2.2421177589411776e26	942.0612572613527	2842.625205532513	5.495611855015824	0.9919095817547768
0.011337150501605367	3.0443324292085853e-24	3.1559946164059463e9	2.2421177589411776e26	942.0612572613527	2842.625205532513	5.495611855015824	0.9919095817547768
0.011380348081232656	3.155428187498876e-24	3.1559946164059463e9	2.2421177589411776e26	942.0612572613527	2842.625205532513	5.495611855015824	0.9919095817547768
0.011423710255207125	3.2677960959671288e-24	3.1559946164059463e9	2.2421177589411776e26	942.0612572613527	2842.625205532513	5.495611855015824	0.9919095817547768
0.011467237650677264	3.3814509163835206e-24	3.1559946164059463e9	2.2421177589411776e26	942.0612572613527	2842.625205532513	5.495611855015824	0.9919095817547768
0.011510930897181318	3.496407581860953e-24	3.1559946164059463e9	2.2421177589411776e26	942.0612572613527	2842.625205532513	5.495611855015824	0.9919095817547768
0.011554790626656094	3.612681198838012e-24	3.1559946164059463e9	2.2421177589411776e26	942.0612572613527	2842.625205532513	5.495611855015824	0.9919095817547768
0.011598817473446297	3.7302870490860756e-24	3.1559946164059463e9	2.2421177589411776e26	942.0612572613527	2842.625205532513	5.495611855015824	0.9919095817547768
0.011643012074313654	3.8492405917389355e-24	3.1559946164059463e9	2.2421177589411776e26	942.0612572613527	2842.625205532513	5.495611855015824	0.9919095817547768
0.011687375068446125	3.969557465346032e-24	3.1559946164059463e9	2.2421177589411776e26	942.0612572613527	2842.625205532513	5.495611855015824	0.9919095817547768
0.01173190709746715	4.091253489949356e-24	3.1559946164059463e9	2.2421177589411776e26	942.0612572613527	2842.625205532513	5.495611855015824	0.9919095817547768
0.011776608805444922	4.214344669184345e-24	3.1559946164059463e9	2.2421177589411776e26	942.0612572613527	2842.625205532513	5.495611855015824	0.9919095817547768
0.011821480838901659	4.338847192404915e-24	3.1559946164059463e9	2.2421177589411776e26	942.0612572613527	2842.625205532513	5.495611855015824	0.9919095817547768
0.01186652384682315	4.4647774368336934e-24	3.1559946164059463e9	2.2421177589411776e26	942.0612572613527	2842.625205532513	5.495611855015824	0.9919095817547768
0.011911738480667844	4.59215196973569e-24	3.1559946164059463e9	2.2421177589411776e26	942.0612572613527	2842.625205532513	5.495611855015824	0.9919095817547768
0.011957125394376475	4.72098755061851e-24	3.1559946164059463e9	2.2421177589411776e26	942.0612572613527	2842.625205532513	5.495611855015824	0.9919095817547768
0.012002685244381459	4.851301133457167e-24	3.1559946164059463e9	2.2421177589411776e26	942.0612572613527	2842.625205532513	5.495611855015824	0.9919095817547768
0.012048418689616402	4.983109868944825e-24	3.1559946164059463e9	2.2421177589411776e26	942.0612572613527	2842.625205532513	5.495611855015824	0.9919095817547768
0.01209432639152562	5.116431106769479e-24	3.1559946164059463e9	2.2421177589411776e26	942.0612572613527	2842.625205532513	5.495611855015824	0.9919095817547768
0.01214040901407371	5.251282397916903e-24	3.1559946164059463e9	2.2421177589411776e26	942.0612572613527	2842.625205532513	5.495611855015824	0.9919095817547768
0.012186667223755101	5.387681497000047e-24	3.1559946164059463e9	2.2421177589411776e26	942.0612572613527	2842.625205532513	5.495611855015824	0.9919095817547768
0.012233101689603898	5.525646364616124e-24	3.1559946164059463e9	2.2421177589411776e26	942.0612572613527	2842.625205532513	5.495611855015824	0.9919095817547768
0.01227971308320325	5.6651951697292885e-24	3.1559946164059463e9	2.2421177589411776e26	942.0612572613527	2842.625205532513	5.495611855015824	0.9919095817547768
0.012326502078695267	5.806346292082455e-24	3.1559946164059463e9	2.2421177589411776e26	942.0612572613527	2842.625205532513	5.495611855015824	0.9919095817547768
0.01237346935279073	5.9491183246361225e-24	3.1559946164059463e9	2.2421177589411776e26	942.0612572613527	2842.625205532513	5.495611855015824	0.9919095817547768
0.012420615584778858	6.093530076035492e-24	3.1559946164059463e9	2.2421177589411776e26	942.0612572613527	2842.625205532513	5.495611855015824	0.9919095817547768
0.012467941456537152	6.239600573106133e-24	3.1559946164059463e9	2.2421177589411776e26	942.0612572613527	2842.625205532513	5.495611855015824	0.9919095817547768
0.012515447652541244	6.387349063378381e-24	3.1559946164059463e9	2.2421177589411776e26	942.0612572613527	2842.625205532513	5.495611855015824	0.9919095817547768
0.012563134859874755	6.5367950176407666e-24	3.1559946164059463e9	2.2421177589411776e26	942.0612572613527	2842.625205532513	5.495611855015824	0.9919095817547768
0.012611003768239424	6.687958132523654e-24	3.1559946164059463e9	2.2421177589411776e26	942.0612572613527	2842.625205532513	5.495611855015824	0.9919095817547768
0.012659055069964795	6.840858333111203e-24	3.1559946164059463e9	2.2421177589411776e26	942.0612572613527	2842.625205532513	5.495611855015824	0.9919095817547768
0.01270728946001842	6.995515775584936e-24	3.1559946164059463e9	2.2421177589411776e26	942.0612572613527	2842.625205532513	5.495611855015824	0.9919095817547768
0.012755707636015858	7.151950849897132e-24	3.1559946164059463e9	2.2421177589411776e26	942.0612572613527	2842.625205532513	5.495611855015824	0.9919095817547768
0.012804310298230778	7.310184182475191e-24	3.1559946164059463e9	2.2421177589411776e26	942.0612572613527	2842.625205532513	5.495611855015824	0.9919095817547768
0.012853098149605075	7.470236638957191e-24	3.1559946164059463e9	2.2421177589411776e26	942.0612572613527	2842.625205532513	5.495611855015824	0.9919095817547768
0.012902071895759043	7.632129326959063e-24	3.1559946164059463e9	2.2421177589411776e26	942.0612572613527	2842.625205532513	5.495611855015824	0.9919095817547768
0.012951232245001523	7.795883598873444e-24	3.1559946164059463e9	2.2421177589411776e26	942.0612572613527	2842.625205532513	5.495611855015824	0.9919095817547768
0.013000579908340363	7.961521054701815e-24	3.1559946164059463e9	2.2421177589411776e26	942.0612572613527	2842.625205532513	5.495611855015824	0.9919095817547768
0.013050115599492382	8.12906354491746e-24	3.1559946164059463e9	2.2421177589411776e26	942.0612572613527	2842.625205532513	5.495611855015824	0.9919095817547768
0.013099840034893905	8.298533173363287e-24	3.1559946164059463e9	2.2421177589411776e26	942.0612572613527	2842.625205532513	5.495611855015824	0.9919095817547768
0.01314975393371107	8.469952300182191e-24	3.1559946164059463e9	2.2421177589411776e26	942.0612572613527	2842.625205532513	5.495611855015824	0.9919095817547768
0.01319985801785023	8.643343544781361e-24	3.1559946164059463e9	2.2421177589411776e26	942.0612572613527	2842.625205532513	5.495611855015824	0.9919095817547768
0.013250153011968397	8.818729788830909e-24	3.1559946164059463e9	2.2421177589411776e26	942.0612572613527	2842.625205532513	5.495611855015824	0.9919095817547768
0.013300639643483665	8.996134179296748e-24	3.1559946164059463e9	2.2421177589411776e26	942.0612572613527	2842.625205532513	5.495611855015824	0.9919095817547768
0.013351318642585945	9.175580016893025e-24	3.1559946164059463e9	2.2421177589411776e26	942.0612572613527	2842.625205532513	5.495611855015824	0.9919095817547768
0.013402190742247211	9.357086878104137e-24	3.1559946164059463e9	2.2421177589411776e26	942.0612572613527	2842.625205532513	5.495611855015824	0.9919095817547768
0.013453256678232304	9.540676424034705e-24	3.1559946164059463e9	2.2421177589411776e26	942.0612572613527	2842.625205532513	5.495611855015824	0.9919095817547768
0.013504517189109534	9.726372552269733e-24	3.1559946164059463e9	2.2421177589411776e26	942.0612572613527	2842.625205532513	5.495611855015824	0.9919095817547768
0.013555973016261344	9.91419943460494e-24	3.1559946164059463e9	2.2421177589411776e26	942.0612572613527	2842.625205532513	5.495611855015824	0.9919095817547768
0.013607624903895053	1.0104181520193273e-23	3.1559946164059463e9	2.2421177589411776e26	942.0612572613527	2842.625205532513	5.495611855015824	0.9919095817547768
0.0136594735990536	1.0296343538727307e-23	3.1559946164059463e9	2.2421177589411776e26	942.0612572613527	2842.625205532513	5.495611855015824	0.9919095817547768
0.013711519851626308	1.049071050365815e-23	3.1559946164059463e9	2.2421177589411776e26	942.0612572613527	2842.625205532513	5.495611855015824	0.9919095817547768
0.013763764414359943	1.0687307715452206e-23	3.1559946164059463e9	2.2421177589411776e26	942.0612572613527	2842.625205532513	5.495611855015824	0.9919095817547768
0.013816208042869276	1.0886160764883254e-23	3.1559946164059463e9	2.2421177589411776e26	942.0612572613527	2842.625205532513	5.495611855015824	0.9919095817547768
0.01386885149564822	1.1087295536364404e-23	3.1559946164059463e9	2.2421177589411776e26	942.0612572613527	2842.625205532513	5.495611855015824	0.9919095817547768
0.013921695534080762	1.1290738211317197e-23	3.1559946164059463e9	2.2421177589411776e26	942.0612572613527	2842.625205532513	5.495611855015824	0.9919095817547768
0.013974740922451956	1.1496515271579628e-23	3.1559946164059463e9	2.2421177589411776e26	942.0612572613527	2842.625205532513	5.495611855015824	0.9919095817547768
0.014027988427958998	1.1704653502853271e-23	3.1559946164059463e9	2.2421177589411776e26	942.0612572613527	2842.625205532513	5.495611855015824	0.9919095817547768
0.014081438820722299	1.1915179998189852e-23	3.1559946164059463e9	2.2421177589411776e26	942.0612572613527	2842.625205532513	5.495611855015824	0.9919095817547768
0.014135092873796587	1.2128122161517795e-23	3.1559946164059463e9	2.2421177589411776e26	942.0612572613527	2842.625205532513	5.495611855015824	0.9919095817547768
0.014188951363182302	1.2343507711210154e-23	3.1559946164059463e9	2.2421177589411776e26	942.0612572613527	2842.625205532513	5.495611855015824	0.9919095817547768
0.014243015067836486	1.2561364683691417e-23	3.1559946164059463e9	2.2421177589411776e26	942.0612572613527	2842.625205532513	5.495611855015824	0.9919095817547768
0.014297284769684268	1.2781721437087776e-23	3.1559946164059463e9	2.2421177589411776e26	942.0612572613527	2842.625205532513	5.495611855015824	0.9919095817547768
0.014351761253630128	1.3004606654918308e-23	3.1559946164059463e9	2.2421177589411776e26	942.0612572613527	2842.625205532513	5.495611855015824	0.9919095817547768
0.014406445307569233	1.3230049349828607e-23	3.1559946164059463e9	2.2421177589411776e26	942.0612572613527	2842.625205532513	5.495611855015824	0.9919095817547768
0.01446133772239885	1.3458078867367384e-23	3.1559946164059463e9	2.2421177589411776e26	942.0612572613527	2842.625205532513	5.495611855015824	0.9919095817547768
0.014516439292029774	1.3688724889806287e-23	3.1559946164059463e9	2.2421177589411776e26	942.0612572613527	2842.625205532513	5.495611855015824	0.9919095817547768
0.01457175081339775	1.3922017440003343e-23	3.1559946164059463e9	2.2421177589411776e26	942.0612572613527	2842.625205532513	5.495611855015824	0.9919095817547768
0.014627273086475247	1.415798688531207e-23	3.155994616405945e9	2.2421177589411765e26	942.0612572613524	2842.6252055325112	5.495611855015823	0.9919095817547768
0.014683006914282652	1.4396663941532687e-23	3.155994616405945e9	2.2421177589411765e26	942.0612572613524	2842.6252055325112	5.495611855015823	0.9919095817547768
0.014738953102900151	1.463807967691157e-23	3.155994616405945e9	2.2421177589411765e26	942.0612572613524	2842.6252055325112	5.495611855015823	0.9919095817547768
0.0147951124614793	1.4882265516184912e-23	3.155994616405945e9	2.2421177589411765e26	942.0612572613524	2842.6252055325112	5.495611855015823	0.9919095817547768
0.014851485802254741	1.5129253244669325e-23	3.155994616405945e9	2.2421177589411765e26	942.0612572613524	2842.6252055325112	5.495611855015823	0.9919095817547768
0.014908073940555953	1.5379075012399303e-23	3.155994616405945e9	2.2421177589411765e26	942.0612572613524	2842.6252055325112	5.495611855015823	0.9919095817547768
0.014964877694819027	1.563176333831207e-23	3.155994616405945e9	2.2421177589411765e26	942.0612572613524	2842.6252055325112	5.495611855015823	0.9919095817547768
0.01502189788659847	1.588735111448037e-23	3.155994616405945e9	2.2421177589411765e26	942.0612572613524	2842.6252055325112	5.495611855015823	0.9919095817547768
0.015079135340579298	1.614587161039492e-23	3.155994616405945e9	2.2421177589411765e26	942.0612572613524	2842.6252055325112	5.495611855015823	0.9919095817547768
0.015136590884588626	1.6407358477293568e-23	3.155994616405945e9	2.2421177589411765e26	942.0612572613524	2842.6252055325112	5.495611855015823	0.9919095817547768
0.01519426534960787	1.6671845752542602e-23	3.155994616405945e9	2.2421177589411765e26	942.0612572613524	2842.6252055325112	5.495611855015823	0.9919095817547768
0.015252159569784705	1.693936786406711e-23	3.155994616405945e9	2.2421177589411765e26	942.0612572613524	2842.6252055325112	5.495611855015823	0.9919095817547768
0.015310274382445135	1.7209959634832456e-23	3.155994616405945e9	2.2421177589411765e26	942.0612572613524	2842.6252055325112	5.495611855015823	0.9919095817547768
0.015368610628105604	1.7483656287377067e-23	3.155994616405945e9	2.2421177589411765e26	942.0612572613524	2842.6252055325112	5.495611855015823	0.9919095817547768
0.015427169150485137	1.7760493448397327e-23	3.155994616405945e9	2.2421177589411765e26	942.0612572613524	2842.6252055325112	5.495611855015823	0.9919095817547768
0.015485950796517508	1.804050715338479e-23	3.155994616405945e9	2.2421177589411765e26	942.0612572613524	2842.6252055325112	5.495611855015823	0.9919095817547768
0.015544956416363704	1.8323733851317945e-23	3.155994616405945e9	2.2421177589411765e26	942.0612572613524	2842.6252055325112	5.495611855015823	0.9919095817547768
0.015604186863423885	1.8610210409405133e-23	3.155994616405945e9	2.2421177589411765e26	942.0612572613524	2842.6252055325112	5.495611855015823	0.9919095817547768
0.01566364299434994	1.8899974117884486e-23	3.155994616405945e9	2.2421177589411765e26	942.0612572613524	2842.6252055325112	5.495611855015823	0.9919095817547768
0.01572332566905785	1.9193062694877804e-23	3.155994616405945e9	2.2421177589411765e26	942.0612572613524	2842.6252055325112	5.495611855015823	0.9919095817547768
0.015783235750740084	1.9489514291300116e-23	3.155994616405945e9	2.2421177589411765e26	942.0612572613524	2842.6252055325112	5.495611855015823	0.9919095817547768
0.015843374105878116	1.9789367495825876e-23	3.155994616405945e9	2.2421177589411765e26	942.0612572613524	2842.6252055325112	5.495611855015823	0.9919095817547768
0.015903741604254954	2.0092661339911964e-23	3.155994616405945e9	2.2421177589411765e26	942.0612572613524	2842.6252055325112	5.495611855015823	0.9919095817547768
0.015964339118967635	2.039943530287789e-23	3.155994616405945e9	2.2421177589411765e26	942.0612572613524	2842.6252055325112	5.495611855015823	0.9919095817547768
0.01602516752644013	2.070972931704627e-23	3.155994616405945e9	2.2421177589411765e26	942.0612572613524	2842.6252055325112	5.495611855015823	0.9919095817547768
