r[m]	M[Msun]	rho[g/cm^3]	P[N/m^2]	n_e[pm^-3]	n_p[pm^-3]	muF_e[MeV]	B
0.010000000000000009	1.8960560706524012e-39	3.291391814899653e8	1.0683135143126822e25	97.77367123065785	98.93429819586976	2.3475726386256204	0.996366301591288
0.01003926372711678	8.29071095071472e-27	3.291391814899653e8	1.0683135143126822e25	97.77367123065785	98.93429819586976	2.3475726386256204	0.996366301591288
0.010078681618260263	1.6845502956479126e-26	3.291391814899653e8	1.0683135143126822e25	97.77367123065785	98.93429819586976	2.3475726386256204	0.996366301591288
0.010118254278735883	2.5634281915679564e-26	3.291391814899653e8	1.0683135143126822e25	97.77367123065785	98.93429819586976	2.3475726386256204	0.996366301591288
0.010157982316225722	3.4626200942811493e-26	3.291391814899653e8	1.0683135143126822e25	97.77367123065785	98.93429819586976	2.3475726386256204	0.996366301591288
0.01019786634079785	4.378964781132563e-26	3.291391814899653e8	1.0683135143126822e25	97.77367123065785	98.93429819586976	2.3475726386256204	0.996366301591288
0.01023790696491569	5.309223221712679e-26	3.291391814899653e8	1.0683135143126822e25	97.77367123065785	98.93429819586976	2.3475726386256204	0.996366301591288
0.010278104803447426	6.250077286035921e-26	3.291391814899653e8	1.0683135143126822e25	97.77367123065785	98.93429819586976	2.3475726386256204	0.996366301591288
0.01031846047367544	7.198128434307741e-26	3.291391814899653e8	1.0683135143126822e25	97.77367123065785	98.93429819586976	2.3475726386256204	0.996366301591288
0.010358974595305801	8.14989638803664e-26	3.291391814899653e8	1.0683135143126822e25	97.77367123065785	98.93429819586976	2.3475726386256204	0.996366301591288
0.010399647790477766	9.101817782245023e-26	3.291391814899653e8	1.0683135143126822e25	97.77367123065785	98.93429819586976	2.3475726386256204	0.996366301591288
0.010440480683773352	1.0050244798529639e-25	3.291391814899653e8	1.0683135143126822e25	97.77367123065785	98.93429819586976	2.3475726386256204	0.996366301591288
0.010481473902226915	1.0991633939894161e-25	3.291391814899653e8	1.0683135143126822e25	97.77367123065785	98.93429819586976	2.3475726386256204	0.996366301591288
0.010522628075334774	1.194817516924465e-25	3.291391814899653e8	1.0683135143126822e25	97.77367123065785	98.93429819586976	2.3475726386256204	0.996366301591288
0.010563943835064897	1.293455189669055e-25	3.291391814899653e8	1.0683135143126822e25	97.77367123065785	98.93429819586976	2.3475726386256204	0.996366301591288
0.010605421815866586	1.3947114911250974e-25	3.291391814899653e8	1.0683135143126822e25	97.77367123065785	98.93429819586976	2.3475726386256204	0.996366301591288
0.010647062654680232	1.4982124074132302e-25	3.291391814899653e8	1.0683135143126822e25	97.77367123065785	98.93429819586976	2.3475726386256204	0.996366301591288
0.010688866990947085	1.6035746803628134e-25	3.291391814899653e8	1.0683135143126822e25	97.77367123065785	98.93429819586976	2.3475726386256204	0.996366301591288
0.010730835466619088	1.7104056538390548e-25	3.291391814899653e8	1.0683135143126822e25	97.77367123065785	98.93429819586976	2.3475726386256204	0.996366301591288
0.010772968726168763	1.81830311787877e-25	3.291391814899653e8	1.0683135143126822e25	97.77367123065785	98.93429819586976	2.3475726386256204	0.996366301591288
0.010815267416598945	1.926855150605232e-25	3.291391814899653e8	1.0683135143126822e25	97.77367123065785	98.93429819586976	2.3475726386256204	0.996366301591288
0.01085773218745297	2.0356399578943683e-25	3.291391814899653e8	1.0683135143126822e25	97.77367123065785	98.93429819586976	2.3475726386256204	0.996366301591288
0.010900363690824484	2.1442257107604275e-25	3.291391814899653e8	1.0683135143126822e25	97.77367123065785	98.93429819586976	2.3475726386256204	0.996366301591288
0.010943162581367495	2.252170380432728e-25	3.291391814899653e8	1.0683135143126822e25	97.77367123065785	98.93429819586976	2.3475726386256204	0.996366301591288
0.010986129516306424	2.3603576069334305e-25	3.291391814899653e8	1.0683135143126822e25	97.77367123065785	98.93429819586976	2.3475726386256204	0.996366301591288
0.011029265155446201	2.4721232427890463e-25	3.291391814899653e8	1.0683135143126822e25	97.77367123065785	98.93429819586976	2.3475726386256204	0.996366301591288
0.011072570161182398	2.5874741000698353e-25	3.291391814899653e8	1.0683135143126822e25	97.77367123065785	98.93429819586976	2.3475726386256204	0.996366301591288
0.011116045198511396	2.706205059407065e-25	3.291391814899653e8	1.0683135143126822e25	97.77367123065785	98.93429819586976	2.3475726386256204	0.996366301591288
0.0111596909350406	2.828105586541516e-25	3.291391814899653e8	1.0683135143126822e25	97.77367123065785	98.93429819586976	2.3475726386256204	0.996366301591288
0.011203508040998697	2.952959640679692e-25	3.291391814899653e8	1.0683135143126822e25	97.77367123065785	98.93429819586976	2.3475726386256204	0.996366301591288
0.01124749718924593	3.0805455815329465e-25	3.291391814899653e8	1.0683135143126822e25	97.77367123065785	98.93429819586976	2.3475726386256204	0.996366301591288
0.011291659055284451	3.2106360750222086e-25	3.291391814899653e8	1.0683135143126822e25	97.77367123065785	98.93429819586976	2.3475726386256204	0.996366301591288
0.011335994317268682	3.3429979976303944e-25	3.291391814899653e8	1.0683135143126822e25	97.77367123065785	98.93429819586976	2.3475726386256204	0.996366301591288
0.011380503656015735	3.477392339384789e-25	3.291391814899653e8	1.0683135143126822e25	97.77367123065785	98.93429819586976	2.3475726386256204	0.996366301591288
0.011425187755015859	3.6135741054511205e-25	3.291391814899653e8	1.0683135143126822e25	97.77367123065785	98.93429819586976	2.3475726386256204	0.996366301591288
0.01147004730044294	3.7512922163209724e-25	3.291391814899653e8	1.0683135143126822e25	97.77367123065785	98.93429819586976	2.3475726386256204	0.996366301591288
0.011515082981165048	3.890289406574035e-25	3.291391814899653e8	1.0683135143126822e25	97.77367123065785	98.93429819586976	2.3475726386256204	0.996366301591288
0.011560295488754993	4.030302122196117e-25	3.291391814899653e8	1.0683135143126822e25	97.77367123065785	98.93429819586976	2.3475726386256204	0.996366301591288
0.011605685517500965	4.171060416434119e-25	3.291391814899653e8	1.0683135143126822e25	97.77367123065785	98.93429819586976	2.3475726386256204	0.996366301591288
0.011651253764417188	4.312287844168396e-25	3.291391814899653e8	1.0683135143126822e25	97.77367123065785	98.93429819586976	2.3475726386256204	0.996366301591288
0.011697000929254622	4.453701354783084e-25	3.291391814899653e8	1.0683135143126822e25	97.77367123065785	98.93429819586976	2.3475726386256204	0.996366301591288
0.01174292771451171	4.595011183514506e-25	3.291391814899653e8	1.0683135143126822e25	97.77367123065785	98.93429819586976	2.3475726386256204	0.996366301591288
0.011789034825445167	4.735920741257638e-25	3.291391814899653e8	1.0683135143126822e25	97.77367123065785	98.93429819586976	2.3475726386256204	0.996366301591288
0.011835322970080808	4.876126502810265e-25	3.291391814899653e8	1.0683135143126822e25	97.77367123065785	98.93429819586976	2.3475726386256204	0.996366301591288
0.01188179285922442	5.0153178935342495e-25	3.291391814899653e8	1.0683135143126822e25	97.77367123065785	98.93429819586976	2.3475726386256204	0.996366301591288
0.01192844520647268	5.153651340382236e-25	3.291391814899653e8	1.0683135143126822e25	97.77367123065785	98.93429819586976	2.3475726386256204	0.996366301591288
0.011975280728224113	5.295649618976414e-25	3.291391814899653e8	1.0683135143126822e25	97.77367123065785	98.93429819586976	2.3475726386256204	0.996366301591288
0.012022300143690086	5.442291272969713e-25	3.291391814899653e8	1.0683135143126822e25	97.77367123065785	98.93429819586976	2.3475726386256204	0.996366301591288
0.012069504174905864	5.5932883244285755e-25	3.291391814899653e8	1.0683135143126822e25	97.77367123065785	98.93429819586976	2.3475726386256204	0.996366301591288
0.012116893546741687	5.7483452541811535e-25	3.291391814899653e8	1.0683135143126822e25	97.77367123065785	98.93429819586976	2.3475726386256204	0.996366301591288
0.012164468986913913	5.907158874452425e-25	3.291391814899653e8	1.0683135143126822e25	97.77367123065785	98.93429819586976	2.3475726386256204	0.996366301591288
0.012212231225996174	6.069418199670341e-25	3.291391814899653e8	1.0683135143126822e25	97.77367123065785	98.93429819586976	2.3475726386256204	0.996366301591288
0.01226018099743062	6.234804315419185e-25	3.291391814899653e8	1.0683135143126822e25	97.77367123065785	98.93429819586976	2.3475726386256204	0.996366301591288
0.012308319037539154	6.402990245515097e-25	3.291391814899653e8	1.0683135143126822e25	97.77367123065785	98.93429819586976	2.3475726386256204	0.996366301591288
0.012356646085534766	6.573640817179386e-25	3.291391814899653e8	1.0683135143126822e25	97.77367123065785	98.93429819586976	2.3475726386256204	0.996366301591288
0.012405162883532913	6.746412524284214e-25	3.291391814899653e8	1.0683135143126822e25	97.77367123065785	98.93429819586976	2.3475726386256204	0.996366301591288
0.012453870176562727	6.920953388644305e-25	3.291391814899653e8	1.0683135143126822e25	97.77367123065785	98.93429819586976	2.3475726386256204	0.996366301591288
0.012502768712578754	7.096902819331466e-25	3.291391814899653e8	1.0683135143126822e25	97.77367123065785	98.93429819586976	2.3475726386256204	0.996366301591288
0.012551859242472234	7.273891469982195e-25	3.291391814899653e8	1.0683135143126822e25	97.77367123065785	98.93429819586976	2.3475726386256204	0.996366301591288
0.012601142520082691	7.451541094074558e-25	3.291391814899653e8	1.0683135143126822e25	97.77367123065785	98.93429819586976	2.3475726386256204	0.996366301591288
0.0126506193022095	7.62946439814643e-25	3.291391814899653e8	1.0683135143126822e25	97.77367123065785	98.93429819586976	2.3475726386256204	0.996366301591288
0.012700290348623513	7.807264892928179e-25	3.291391814899653e8	1.0683135143126822e25	97.77367123065785	98.93429819586976	2.3475726386256204	0.996366301591288
0.012750156422078726	7.9845367423621905e-25	3.291391814899653e8	1.0683135143126822e25	97.77367123065785	98.93429819586976	2.3475726386256204	0.996366301591288
0.012800218288323992	8.160864610481465e-25	3.291391814899653e8	1.0683135143126822e25	97.77367123065785	98.93429819586976	2.3475726386256204	0.996366301591288
0.012850476716114778	8.335823506119026e-25	3.291391814899653e8	1.0683135143126822e25	97.77367123065785	98.93429819586976	2.3475726386256204	0.996366301591288
0.012900932477224975	8.510075183277055e-25	3.291391814899653e8	1.0683135143126822e25	97.77367123065785	98.93429819586976	2.3475726386256204	0.996366301591288
0.01295158634645874	8.686677451084016e-25	3.291391814899653e8	1.0683135143126822e25	97.77367123065785	98.93429819586976	2.3475726386256204	0.996366301591288
0.013002439101662407	8.865866910365757e-25	3.291391814899653e8	1.0683135143126822e25	97.77367123065785	98.93429819586976	2.3475726386256204	0.996366301591288
0.013053491523736421	9.047668620008297e-25	3.291391814899653e8	1.0683135143126822e25	97.77367123065785	98.93429819586976	2.3475726386256204	0.996366301591288
0.01310474439664733	9.232107854528575e-25	3.291391814899653e8	1.0683135143126822e25	97.77367123065785	98.93429819586976	2.3475726386256204	0.996366301591288
0.013156198507439829	9.419210105843564e-25	3.291391814899653e8	1.0683135143126822e25	97.77367123065785	98.93429819586976	2.3475726386256204	0.996366301591288
0.01320785464624885	9.609001085053624e-25	3.291391814899653e8	1.0683135143126822e25	97.77367123065785	98.93429819586976	2.3475726386256204	0.996366301591288
0.01325971360631168	9.801506724240079e-25	3.291391814899653e8	1.0683135143126822e25	97.77367123065785	98.93429819586976	2.3475726386256204	0.996366301591288
0.013311776183980158	9.996753178277305e-25	3.291391814899653e8	1.0683135143126822e25	97.77367123065785	98.93429819586976	2.3475726386256204	0.996366301591288
0.013364043178732894	1.0194766826659351e-24	3.291391814899653e8	1.0683135143126822e25	97.77367123065785	98.93429819586976	2.3475726386256204	0.996366301591288
0.013416515393187547	1.0395574275341202e-24	3.291391814899653e8	1.0683135143126822e25	97.77367123065785	98.93429819586976	2.3475726386256204	0.996366301591288
0.013469193633113153	1.0599202358594821e-24	3.291391814899653e8	1.0683135143126822e25	97.77367123065785	98.93429819586976	2.3475726386256204	0.996366301591288
0.013522078707442507	1.0805678140880158e-24	3.291391814899653e8	1.0683135143126822e25	97.77367123065785	98.93429819586976	2.3475726386256204	0.996366301591288
0.01357517142828456	1.101502891873099e-24	3.291391814899653e8	1.0683135143126822e25	97.77367123065785	98.93429819586976	2.3475726386256204	0.996366301591288
0.013628472610936916	1.122728222265614e-24	3.291391814899653e8	1.0683135143126822e25	97.77367123065785	98.93429819586976	2.3475726386256204	0.996366301591288
0.013681983073898339	1.1442465819055736e-24	3.291391814899653e8	1.0683135143126822e25	97.77367123065785	98.93429819586976	2.3475726386256204	0.996366301591288
0.013735703638881325	1.1660607712152961e-24	3.291391814899653e8	1.0683135143126822e25	97.77367123065785	98.93429819586976	2.3475726386256204	0.996366301591288
0.013789635130824714	1.1881736145941248e-24	3.291391814899653e8	1.0683135143126822e25	97.77367123065785	98.93429819586976	2.3475726386256204	0.996366301591288
0.01384377837790637	1.2105879606147178e-24	3.291391814899653e8	1.0683135143126822e25	97.77367123065785	98.93429819586976	2.3475726386256204	0.996366301591288
0.013898134211555889	1.233306682220897e-24	3.291391814899653e8	1.0683135143126822e25	97.77367123065785	98.93429819586976	2.3475726386256204	0.996366301591288
0.013952703466467369	1.2563326769270999e-24	3.291391814899653e8	1.0683135143126822e25	97.77367123065785	98.93429819586976	2.3475726386256204	0.996366301591288
0.01400748698061223	1.279668867019418e-24	3.291391814899653e8	1.0683135143126822e25	97.77367123065785	98.93429819586976	2.3475726386256204	0.996366301591288
0.01406248559525208	1.3033181997582614e-24	3.291391814899653e8	1.0683135143126822e25	97.77367123065785	98.93429819586976	2.3475726386256204	0.996366301591288
0.014117700154951632	1.3272836475826276e-24	3.291391814899653e8	1.0683135143126822e25	97.77367123065785	98.93429819586976	2.3475726386256204	0.996366301591288
0.014173131507591676	1.3515682083160336e-24	3.291391814899653e8	1.0683135143126822e25	97.77367123065785	98.93429819586976	2.3475726386256204	0.996366301591288
0.014228780504382095	1.3761749053740737e-24	3.291391814899653e8	1.0683135143126822e25	97.77367123065785	98.93429819586976	2.3475726386256204	0.996366301591288
0.014284647999875005	1.4011067879736918e-24	3.291391814899653e8	1.0683135143126822e25	97.77367123065785	98.93429819586976	2.3475726386256204	0.996366301591288
0.014340734851977628	1.4263669313439785e-24	3.291391814899653e8	1.0683135143126822e25	97.77367123065785	98.93429819586976	2.3475726386256204	0.996366301591288
0.014397041921965833	1.4519584369389366e-24	3.291391814899653e8	1.0683135143126822e25	97.77367123065785	98.93429819586976	2.3475726386256204	0.996366301591288
0.014453570074497112	1.477884432651671e-24	3.291391814899653e8	1.0683135143126822e25	97.77367123065785	98.93429819586976	2.3475726386256204	0.996366301591288
0.014510320177623933	1.5041480730304551e-24	3.291391814899653e8	1.0683135143126822e25	97.77367123065785	98.93429819586976	2.3475726386256204	0.996366301591288
0.014567293102807053	1.5307525394964642e-24	3.291391814899653e8	1.0683135143126822e25	97.77367123065785	98.93429819586976	2.3475726386256204	0.996366301591288
0.014624489724928918	1.5577010405632982e-24	3.291391814899653e8	1.0683135143126822e25	97.77367123065785	98.93429819586976	2.3475726386256204	0.996366301591288
0.014681910922307086	1.5849968120582163e-24	3.291391814899653e8	1.0683135143126822e25	97.77367123065785	98.93429819586976	2.3475726386256204	0.996366301591288
0.014739557576707708	1.6126431173451826e-24	3.291391814899653e8	1.0683135143126822e25	97.77367123065785	98.93429819586976	2.3475726386256204	0.996366301591288
0.014797430573359088	1.6406432475496757e-24	3.291391814899653e8	1.0683135143126822e25	97.77367123065785	98.93429819586976	2.3475726386256204	0.996366301591288
0.014855530800965263	1.6690005217853134e-24	3.291391814899653e8	1.0683135143126822e25	97.77367123065785	98.93429819586976	2.3475726386256204	0.996366301591288
0.01491385915171965	1.697718287382275e-24	3.291391814899653e8	1.0683135143126822e25	97.77367123065785	98.93429819586976	2.3475726386256204	0.996366301591288
0.014972416521318761	1.7267999201175768e-24	3.291391814899653e8	1.0683135143126822e25	97.77367123065785	98.93429819586976	2.3475726386256204	0.996366301591288
0.015031203808975933	1.756248824447172e-24	3.291391814899653e8	1.0683135143126822e25	97.77367123065785	98.93429819586976	2.3475726386256204	0.996366301591288
0.015090221917435157	1.786068433739913e-24	3.291391814899653e8	1.0683135143126822e25	97.77367123065785	98.93429819586976	2.3475726386256204	0.996366301591288
0.015149471752984927	1.8162622105134e-24	3.291391814899653e8	1.0683135143126822e25	97.77367123065785	98.93429819586976	2.3475726386256204	0.996366301591288
0.015208954225472172	1.8468336466717004e-24	3.291391814899653e8	1.0683135143126822e25	97.77367123065785	98.93429819586976	2.3475726386256204	0.996366301591288
0.015268670248316213	1.8777862637449832e-24	3.291391814899653e8	1.0683135143126822e25	97.77367123065785	98.93429819586976	2.3475726386256204	0.996366301591288
0.015328620738522801	1.9091236131310747e-24	3.291391814899653e8	1.0683135143126822e25	97.77367123065785	98.93429819586976	2.3475726386256204	0.996366301591288
0.015388806616698185	1.940849276338924e-24	3.291391814899653e8	1.0683135143126822e25	97.77367123065785	98.93429819586976	2.3475726386256204	0.996366301591288
0.015449228807063268	1.9729668652340577e-24	3.291391814899653e8	1.0683135143126822e25	97.77367123065785	98.93429819586976	2.3475726386256204	0.996366301591288
0.015509888237467778	2.0054800222859585e-24	3.291391814899653e8	1.0683135143126822e25	97.77367123065785	98.93429819586976	2.3475726386256204	0.996366301591288
0.015570785839404534	2.0383924208174525e-24	3.291391814899653e8	1.0683135143126822e25	97.77367123065785	98.93429819586976	2.3475726386256204	0.996366301591288
0.01563192254802374	2.0717077652560767e-24	3.291391814899653e8	1.0683135143126822e25	97.77367123065785	98.93429819586976	2.3475726386256204	0.996366301591288
0.015693299302147357	2.1054297913874726e-24	3.291391814899653e8	1.0683135143126822e25	97.77367123065785	98.93429819586976	2.3475726386256204	0.996366301591288
0.01575491704428349	2.1395622666107794e-24	3.291391814899653e8	1.0683135143126822e25	97.77367123065785	98.93429819586976	2.3475726386256204	0.996366301591288
0.015816776720640902	2.174108990196109e-24	3.291391814899653e8	1.0683135143126822e25	97.77367123065785	98.93429819586976	2.3475726386256204	0.996366301591288
0.01587887928114352	2.209073793544056e-24	3.291391814899653e8	1.0683135143126822e25	97.77367123065785	98.93429819586976	2.3475726386256204	0.996366301591288
0.015941225679445017	2.244460540447279e-24	3.291391814899653e8	1.0683135143126822e25	97.77367123065785	98.93429819586976	2.3475726386256204	0.996366301591288
0.01600381687294348	2.280273127354204e-24	3.291391814899653e8	1.0683135143126822e25	97.77367123065785	98.93429819586976	2.3475726386256204	0.996366301591288
0.01606665382279608	2.316515483634802e-24	3.291391814899653e8	1.0683135143126822e25	97.77367123065785	98.93429819586976	2.3475726386256204	0.996366301591288
0.01612973749393387	2.3531915718485203e-24	3.291391814899653e8	1.0683135143126822e25	97.77367123065785	98.93429819586976	2.3475726386256204	0.996366301591288
0.016193068855076573	2.390305388014339e-24	3.291391814899653e8	1.0683135143126822e25	97.77367123065785	98.93429819586976	2.3475726386256204	0.996366301591288
0.016256648878747455	2.4278609618829916e-24	3.291391814899653e8	1.0683135143126822e25	97.77367123065785	98.93429819586976	2.3475726386256204	0.996366301591288
