r[m]	M[Msun]	rho[g/cm^3]	P[N/m^2]	n_e[pm^-3]	n_p[pm^-3]	muF_e[MeV]	B
0.010000000000000014	7.960746055505117e-39	8.608890961464064e8	3.903120611258903e25	255.69359256831504	258.665804703938	3.39747871544736	0.9948764148857224
0.01003878161653173	2.139770060713226e-26	8.608890961464064e8	3.903120611258903e25	255.69359256831504	258.665804703938	3.39747871544736	0.9948764148857224
0.01007771363444153	4.338194359470477e-26	8.608890961464064e8	3.903120611258903e25	255.69359256831504	258.665804703938	3.39747871544736	0.9948764148857224
0.010116796637010267	6.579468927415221e-26	8.608890961464064e8	3.903120611258903e25	255.69359256831504	258.665804703938	3.39747871544736	0.9948764148857224
0.010156031209780855	8.847412106733954e-26	8.608890961464064e8	3.903120611258903e25	255.69359256831504	258.665804703938	3.39747871544736	0.9948764148857224
0.010195417940567044	1.1125458386764137e-25	8.608890961464064e8	3.903120611258903e25	255.69359256831504	258.665804703938	3.39747871544736	0.9948764148857224
0.010234957419462207	1.3396652153511332e-25	8.608890961464064e8	3.903120611258903e25	255.69359256831504	258.665804703938	3.39747871544736	0.9948764148857224
0.010274650238848212	1.5686939204528919e-25	8.608890961464064e8	3.903120611258903e25	255.69359256831504	258.665804703938	3.39747871544736	0.9948764148857224
0.010314496993404264	1.8040901425514544e-25	8.608890961464064e8	3.903120611258903e25	255.69359256831504	258.665804703938	3.39747871544736	0.9948764148857224
0.01035449828011584	2.0441664181650622e-25	8.608890961464064e8	3.903120611258903e25	255.69359256831504	258.665804703938	3.39747871544736	0.9948764148857224
0.010394654698283618	2.2871468104291513e-25	8.608890961464064e8	3.903120611258903e25	255.69359256831504	258.665804703938	3.39747871544736	0.9948764148857224
0.010434966849532462	2.5312132563440373e-25	8.608890961464064e8	3.903120611258903e25	255.69359256831504	258.665804703938	3.39747871544736	0.9948764148857224
0.010475435337820438	2.774504880816531e-25	8.608890961464064e8	3.903120611258903e25	255.69359256831504	258.665804703938	3.39747871544736	0.9948764148857224
0.010516060769447852	3.0204169767847423e-25	8.608890961464064e8	3.903120611258903e25	255.69359256831504	258.665804703938	3.39747871544736	0.9948764148857224
0.010556843753066349	3.274068350027745e-25	8.608890961464064e8	3.903120611258903e25	255.69359256831504	258.665804703938	3.39747871544736	0.9948764148857224
0.010597784899688014	3.534555693615916e-25	8.608890961464064e8	3.903120611258903e25	255.69359256831504	258.665804703938	3.39747871544736	0.9948764148857224
0.010638884822694547	3.8009397451562994e-25	8.608890961464064e8	3.903120611258903e25	255.69359256831504	258.665804703938	3.39747871544736	0.9948764148857224
0.010680144137846431	4.072258283167646e-25	8.608890961464064e8	3.903120611258903e25	255.69359256831504	258.665804703938	3.39747871544736	0.9948764148857224
0.010721563463292174	4.347525749976403e-25	8.608890961464064e8	3.903120611258903e25	255.69359256831504	258.665804703938	3.39747871544736	0.9948764148857224
0.01076314341957756	4.625732869300196e-25	8.608890961464064e8	3.903120611258903e25	255.69359256831504	258.665804703938	3.39747871544736	0.9948764148857224
0.010804884629654954	4.905846258449742e-25	8.608890961464064e8	3.903120611258903e25	255.69359256831504	258.665804703938	3.39747871544736	0.9948764148857224
0.010846787718892624	5.186808035078855e-25	8.608890961464064e8	3.903120611258903e25	255.69359256831504	258.665804703938	3.39747871544736	0.9948764148857224
0.01088885331508413	5.467535418411555e-25	8.608890961464064e8	3.903120611258903e25	255.69359256831504	258.665804703938	3.39747871544736	0.9948764148857224
0.0109310820484577	5.746920324874022e-25	8.608890961464064e8	3.903120611258903e25	255.69359256831504	258.665804703938	3.39747871544736	0.9948764148857224
0.010973474551685701	6.025083313529005e-25	8.608890961464064e8	3.903120611258903e25	255.69359256831504	258.665804703938	3.39747871544736	0.9948764148857224
0.011016031459894104	6.310575139453992e-25	8.608890961464064e8	3.903120611258903e25	255.69359256831504	258.665804703938	3.39747871544736	0.9948764148857224
0.011058753410672	6.604338210159573e-25	8.608890961464064e8	3.903120611258903e25	255.69359256831504	258.665804703938	3.39747871544736	0.9948764148857224
0.011101641044081147	6.90526005284494e-25	8.608890961464064e8	3.903120611258903e25	255.69359256831504	258.665804703938	3.39747871544736	0.9948764148857224
0.011144695002665581	7.212200967426634e-25	8.608890961464064e8	3.903120611258903e25	255.69359256831504	258.665804703938	3.39747871544736	0.9948764148857224
0.011187915931461213	7.523993579153856e-25	8.608890961464064e8	3.903120611258903e25	255.69359256831504	258.665804703938	3.39747871544736	0.9948764148857224
0.011231304478005515	7.839442384920352e-25	8.608890961464064e8	3.903120611258903e25	255.69359256831504	258.665804703938	3.39747871544736	0.9948764148857224
0.011274861292347213	8.157323293190533e-25	8.608890961464064e8	3.903120611258903e25	255.69359256831504	258.665804703938	3.39747871544736	0.9948764148857224
0.011318587027056024	8.47638315745633e-25	8.608890961464064e8	3.903120611258903e25	255.69359256831504	258.665804703938	3.39747871544736	0.9948764148857224
0.011362482337232437	8.795339303140757e-25	8.608890961464064e8	3.903120611258903e25	255.69359256831504	258.665804703938	3.39747871544736	0.9948764148857224
0.011406547880517533	9.112879047862545e-25	8.608890961464064e8	3.903120611258903e25	255.69359256831504	258.665804703938	3.39747871544736	0.9948764148857224
0.011450784317102823	9.428355101079548e-25	8.608890961464064e8	3.903120611258903e25	255.69359256831504	258.665804703938	3.39747871544736	0.9948764148857224
0.01149519230974015	9.746754997637456e-25	8.608890961464064e8	3.903120611258903e25	255.69359256831504	258.665804703938	3.39747871544736	0.9948764148857224
0.01153977252375162	1.0069371514025914e-24	8.608890961464064e8	3.903120611258903e25	255.69359256831504	258.665804703938	3.39747871544736	0.9948764148857224
0.011584525627039557	1.0396244175735133e-24	8.608890961464064e8	3.903120611258903e25	255.69359256831504	258.665804703938	3.39747871544736	0.9948764148857224
0.011629452290096529	1.0727412841625543e-24	8.608890961464064e8	3.903120611258903e25	255.69359256831504	258.665804703938	3.39747871544736	0.9948764148857224
0.011674553186015369	1.1062917706620003e-24	8.608890961464064e8	3.903120611258903e25	255.69359256831504	258.665804703938	3.39747871544736	0.9948764148857224
0.011719828990499287	1.1402799304417667e-24	8.608890961464064e8	3.903120611258903e25	255.69359256831504	258.665804703938	3.39747871544736	0.9948764148857224
0.011765280381871973	1.174709851022903e-24	8.608890961464064e8	3.903120611258903e25	255.69359256831504	258.665804703938	3.39747871544736	0.9948764148857224
0.01181090804108776	1.2095856543532667e-24	8.608890961464064e8	3.903120611258903e25	255.69359256831504	258.665804703938	3.39747871544736	0.9948764148857224
0.011856712651741845	1.2449114970854095e-24	8.608890961464064e8	3.903120611258903e25	255.69359256831504	258.665804703938	3.39747871544736	0.9948764148857224
0.011902694900080458	1.2806915708565804e-24	8.608890961464064e8	3.903120611258903e25	255.69359256831504	258.665804703938	3.39747871544736	0.9948764148857224
0.011948855475011351	1.3169301025711684e-24	8.608890961464064e8	3.903120611258903e25	255.69359256831504	258.665804703938	3.39747871544736	0.9948764148857224
0.011995195068113832	1.353631354684996e-24	8.608890961464064e8	3.903120611258903e25	255.69359256831504	258.665804703938	3.39747871544736	0.9948764148857224
0.012041714373649304	1.3907996254922138e-24	8.608890961464064e8	3.903120611258903e25	255.69359256831504	258.665804703938	3.39747871544736	0.9948764148857224
0.012088414088571638	1.4284392494143236e-24	8.608890961464064e8	3.903120611258903e25	255.69359256831504	258.665804703938	3.39747871544736	0.9948764148857224
0.012135294912537597	1.4665545972914806e-24	8.608890961464064e8	3.903120611258903e25	255.69359256831504	258.665804703938	3.39747871544736	0.9948764148857224
0.012182357547917329	1.50515007667613e-24	8.608890961464064e8	3.903120611258903e25	255.69359256831504	258.665804703938	3.39747871544736	0.9948764148857224
0.01222960269980489	1.5442301321289558e-24	8.608890961464064e8	3.903120611258903e25	255.69359256831504	258.665804703938	3.39747871544736	0.9948764148857224
0.012277031076028799	1.5837992455171655e-24	8.608890961464064e8	3.903120611258903e25	255.69359256831504	258.665804703938	3.39747871544736	0.9948764148857224
0.01232464338716265	1.623861936315147e-24	8.608890961464064e8	3.903120611258903e25	255.69359256831504	258.665804703938	3.39747871544736	0.9948764148857224
0.01237244034653576	1.6644227619074957e-24	8.608890961464064e8	3.903120611258903e25	255.69359256831504	258.665804703938	3.39747871544736	0.9948764148857224
0.01242042267024385	1.7054863178944433e-24	8.608890961464064e8	3.903120611258903e25	255.69359256831504	258.665804703938	3.39747871544736	0.9948764148857224
0.012468591077159774	1.7470572383996855e-24	8.608890961464064e8	3.903120611258903e25	255.69359256831504	258.665804703938	3.39747871544736	0.9948764148857224
0.012516946288944295	1.7891401963806743e-24	8.608890961464064e8	3.903120611258903e25	255.69359256831504	258.665804703938	3.39747871544736	0.9948764148857224
0.012565489030056888	1.8317399039413334e-24	8.608890961464064e8	3.903120611258903e25	255.69359256831504	258.665804703938	3.39747871544736	0.9948764148857224
0.012614220027766604	1.874861112647268e-24	8.608890961464064e8	3.903120611258903e25	255.69359256831504	258.665804703938	3.39747871544736	0.9948764148857224
0.01266314001216296	1.9185086138434555e-24	8.608890961464064e8	3.903120611258903e25	255.69359256831504	258.665804703938	3.39747871544736	0.9948764148857224
0.012712249716166872	1.962687238974446e-24	8.608890961464064e8	3.903120611258903e25	255.69359256831504	258.665804703938	3.39747871544736	0.9948764148857224
0.012761549875541655	2.0074018599071107e-24	8.608890961464064e8	3.903120611258903e25	255.69359256831504	258.665804703938	3.39747871544736	0.9948764148857224
0.01281104122890402	2.0526573892559154e-24	8.608890961464064e8	3.903120611258903e25	255.69359256831504	258.665804703938	3.39747871544736	0.9948764148857224
0.012860724517735156	2.09845878071079e-24	8.608890961464064e8	3.903120611258903e25	255.69359256831504	258.665804703938	3.39747871544736	0.9948764148857224
0.01291060048639184	2.144811029367574e-24	8.608890961464064e8	3.903120611258903e25	255.69359256831504	258.665804703938	3.39747871544736	0.9948764148857224
0.012960669882117585	2.1917191720610818e-24	8.608890961464064e8	3.903120611258903e25	255.69359256831504	258.665804703938	3.39747871544736	0.9948764148857224
0.013010933455053832	2.239188287700794e-24	8.608890961464064e8	3.903120611258903e25	255.69359256831504	258.665804703938	3.39747871544736	0.9948764148857224
0.013061391958251189	2.287223497609197e-24	8.608890961464064e8	3.903120611258903e25	255.69359256831504	258.665804703938	3.39747871544736	0.9948764148857224
0.013112046147680726	2.335829965862823e-24	8.608890961464064e8	3.903120611258903e25	255.69359256831504	258.665804703938	3.39747871544736	0.9948764148857224
0.01316289678224528	2.385012899635945e-24	8.608890961464064e8	3.903120611258903e25	255.69359256831504	258.665804703938	3.39747871544736	0.9948764148857224
0.013213944623790838	2.434777549547013e-24	8.608890961464064e8	3.903120611258903e25	255.69359256831504	258.665804703938	3.39747871544736	0.9948764148857224
0.01326519043711796	2.4851292100078323e-24	8.608890961464064e8	3.903120611258903e25	255.69359256831504	258.665804703938	3.39747871544736	0.9948764148857224
0.01331663498999321	2.5360732195754654e-24	8.608890961464064e8	3.903120611258903e25	255.69359256831504	258.665804703938	3.39747871544736	0.9948764148857224
0.013368279053160686	2.5876149613069613e-24	8.608890961464064e8	3.903120611258903e25	255.69359256831504	258.665804703938	3.39747871544736	0.9948764148857224
0.013420123400353551	2.6397598631168496e-24	8.608890961464064e8	3.903120611258903e25	255.69359256831504	258.665804703938	3.39747871544736	0.9948764148857224
0.013472168808305634	2.692513398137472e-24	8.608890961464064e8	3.903120611258903e25	255.69359256831504	258.665804703938	3.39747871544736	0.9948764148857224
0.013524416056763062	2.7458810850821638e-24	8.608890961464064e8	3.903120611258903e25	255.69359256831504	258.665804703938	3.39747871544736	0.9948764148857224
0.013576865928495939	2.799868488611287e-24	8.608890961464064e8	3.903120611258903e25	255.69359256831504	258.665804703938	3.39747871544736	0.9948764148857224
0.013629519209310086	2.8544812197011847e-24	8.608890961464064e8	3.903120611258903e25	255.69359256831504	258.665804703938	3.39747871544736	0.9948764148857224
0.013682376688058799	2.909724936016004e-24	8.608890961464064e8	3.903120611258903e25	255.69359256831504	258.665804703938	3.39747871544736	0.9948764148857224
0.01373543915665468	2.9656053422825034e-24	8.608890961464064e8	3.903120611258903e25	255.69359256831504	258.665804703938	3.39747871544736	0.9948764148857224
0.013788707410081492	3.0221281906677785e-24	8.608890961464064e8	3.903120611258903e25	255.69359256831504	258.665804703938	3.39747871544736	0.9948764148857224
0.013842182246406072	3.0792992811599977e-24	8.608890961464064e8	3.903120611258903e25	255.69359256831504	258.665804703938	3.39747871544736	0.9948764148857224
0.013895864466790298	3.1371244619521256e-24	8.608890961464064e8	3.903120611258903e25	255.69359256831504	258.665804703938	3.39747871544736	0.9948764148857224
0.013949754875503076	3.1956096298286926e-24	8.608890961464064e8	3.903120611258903e25	255.69359256831504	258.665804703938	3.39747871544736	0.9948764148857224
0.014003854279932398	3.25476073055559e-24	8.608890961464064e8	3.903120611258903e25	255.69359256831504	258.665804703938	3.39747871544736	0.9948764148857224
0.014058163490597436	3.3145837592729734e-24	8.60889096146406e8	3.903120611258901e25	255.69359256831493	258.66580470393797	3.3974787154473596	0.9948764148857224
0.01411268332116069	3.3750847608912494e-24	8.60889096146406e8	3.903120611258901e25	255.69359256831493	258.66580470393797	3.3974787154473596	0.9948764148857224
0.01416741458844017	3.43626983049019e-24	8.60889096146406e8	3.903120611258901e25	255.69359256831493	258.66580470393797	3.3974787154473596	0.9948764148857224
0.014222358112421644	3.498145113721191e-24	8.60889096146406e8	3.903120611258901e25	255.69359256831493	258.66580470393797	3.3974787154473596	0.9948764148857224
0.014277514716270912	3.560716807212713e-24	8.60889096146406e8	3.903120611258901e25	255.69359256831493	258.66580470393797	3.3974787154473596	0.9948764148857224
0.01433288522634615	3.623991158978933e-24	8.60889096146406e8	3.903120611258901e25	255.69359256831493	258.66580470393797	3.3974787154473596	0.9948764148857224
0.014388470472210277	3.6879744688315724e-24	8.60889096146406e8	3.903120611258901e25	255.69359256831493	258.66580470393797	3.3974787154473596	0.9948764148857224
0.014444271286643395	3.752673088795046e-24	8.60889096146406e8	3.903120611258901e25	255.69359256831493	258.66580470393797	3.3974787154473596	0.9948764148857224
0.014500288505655266	3.818093423524826e-24	8.60889096146406e8	3.903120611258901e25	255.69359256831493	258.66580470393797	3.3974787154473596	0.9948764148857224
0.014556522968497824	3.88424193072912e-24	8.60889096146406e8	3.903120611258901e25	255.69359256831493	258.66580470393797	3.3974787154473596	0.9948764148857224
0.014612975517677766	3.9511251215939086e-24	8.60889096146406e8	3.903120611258901e25	255.69359256831493	258.66580470393797	3.3974787154473596	0.9948764148857224
0.01466964699896916	4.0187495612112896e-24	8.60889096146406e8	3.903120611258901e25	255.69359256831493	258.66580470393797	3.3974787154473596	0.9948764148857224
0.014726538261426126	4.08712186901122e-24	8.60889096146406e8	3.903120611258901e25	255.69359256831493	258.66580470393797	3.3974787154473596	0.9948764148857224
0.014783650157395557	4.156248719196685e-24	8.60889096146406e8	3.903120611258901e25	255.69359256831493	258.66580470393797	3.3974787154473596	0.9948764148857224
0.014840983542529872	4.226136841182241e-24	8.60889096146406e8	3.903120611258901e25	255.69359256831493	258.66580470393797	3.3974787154473596	0.9948764148857224
0.014898539275799866	4.2967930200361e-24	8.60889096146406e8	3.903120611258901e25	255.69359256831493	258.66580470393797	3.3974787154473596	0.9948764148857224
0.014956318219507544	4.368224096925601e-24	8.60889096146406e8	3.903120611258901e25	255.69359256831493	258.66580470393797	3.3974787154473596	0.9948764148857224
0.015014321239299072	4.4404369695662926e-24	8.60889096146406e8	3.903120611258901e25	255.69359256831493	258.66580470393797	3.3974787154473596	0.9948764148857224
0.015072549204177724	4.513438592674479e-24	8.60889096146406e8	3.903120611258901e25	255.69359256831493	258.66580470393797	3.3974787154473596	0.9948764148857224
0.015131002986516909	4.587235978423373e-24	8.60889096146406e8	3.903120611258901e25	255.69359256831493	258.66580470393797	3.3974787154473596	0.9948764148857224
0.015189683462073245	4.661836196902842e-24	8.60889096146406e8	3.903120611258901e25	255.69359256831493	258.66580470393797	3.3974787154473596	0.9948764148857224
0.015248591509999675	4.737246376582768e-24	8.60889096146406e8	3.903120611258901e25	255.69359256831493	258.66580470393797	3.3974787154473596	0.9948764148857224
0.015307728012858636	4.8134737047800625e-24	8.60889096146406e8	3.903120611258901e25	255.69359256831493	258.66580470393797	3.3974787154473596	0.9948764148857224
0.015367093856635285	4.8905254281293665e-24	8.60889096146406e8	3.903120611258901e25	255.69359256831493	258.66580470393797	3.3974787154473596	0.9948764148857224
0.015426689930750779	4.968408853057453e-24	8.60889096146406e8	3.903120611258901e25	255.69359256831493	258.66580470393797	3.3974787154473596	0.9948764148857224
0.015486517128075585	5.047131346261389e-24	8.60889096146406e8	3.903120611258901e25	255.69359256831493	258.66580470393797	3.3974787154473596	0.9948764148857224
0.015546576344942874	5.126700335190431e-24	8.60889096146406e8	3.903120611258901e25	255.69359256831493	258.66580470393797	3.3974787154473596	0.9948764148857224
0.01560686848116194	5.207123308531754e-24	8.60889096146406e8	3.903120611258901e25	255.69359256831493	258.66580470393797	3.3974787154473596	0.9948764148857224
0.015667394440031675	5.288407816699966e-24	8.60889096146406e8	3.903120611258901e25	255.69359256831493	258.66580470393797	3.3974787154473596	0.9948764148857224
0.01572815512835412	5.370561472330538e-24	8.60889096146406e8	3.903120611258901e25	255.69359256831493	258.66580470393797	3.3974787154473596	0.9948764148857224
0.01578915145644804	5.453591950777076e-24	8.60889096146406e8	3.903120611258901e25	255.69359256831493	258.66580470393797	3.3974787154473596	0.9948764148857224
0.015850384338162556	5.537506990612495e-24	8.60889096146406e8	3.903120611258901e25	255.69359256831493	258.66580470393797	3.3974787154473596	0.9948764148857224
0.01591185469089085	5.622314394134221e-24	8.60889096146406e8	3.903120611258901e25	255.69359256831493	258.66580470393797	3.3974787154473596	0.9948764148857224
0.015973563435583905	5.708022027873282e-24	8.60889096146406e8	3.903120611258901e25	255.69359256831493	258.66580470393797	3.3974787154473596	0.9948764148857224
0.01603551149676429	5.794637823107459e-24	8.60889096146406e8	3.903120611258901e25	255.69359256831493	258.66580470393797	3.3974787154473596	0.9948764148857224
0.016097699802540038	5.8821697763784764e-24	8.60889096146406e8	3.903120611258901e25	255.69359256831493	258.66580470393797	3.3974787154473596	0.9948764148857224
0.01616012928461852	5.97062595001325e-24	8.60889096146406e8	3.903120611258901e25	255.69359256831493	258.66580470393797	3.3974787154473596	0.9948764148857224
0.016222800878320422	6.0600215978361255e-24	8.60889096146406e8	3.903120611258901e25	255.69359256831493	258.66580470393797	3.3974787154473596	0.9948764148857224
