r[m]	M[Msun]	rho[g/cm^3]	P[N/m^2]	n_e[pm^-3]	n_p[pm^-3]	muF_e[MeV]	B
0.009999999999999992	-3.7329444341355075e-38	8.090522640014416e9	7.887454838964872e26	2413.89507034787	7280.769624512195	7.694590314264626	0.988876698358458
0.010037574171015771	1.945081497173455e-25	8.090522640014416e9	7.887454838964872e26	2413.89507034787	7280.769624512195	7.694590314264626	0.988876698358458
0.010075289523864264	3.928235385789805e-25	8.090522640014416e9	7.887454838964872e26	2413.89507034787	7280.769624512195	7.694590314264626	0.988876698358458
0.010113146589024583	5.921917888338688e-25	8.090522640014416e9	7.887454838964872e26	2413.89507034787	7280.769624512195	7.694590314264626	0.988876698358458
0.010151145898968908	7.929578464878073e-25	8.090522640014416e9	7.887454838964872e26	2413.89507034787	7280.769624512195	7.694590314264626	0.988876698358458
0.010189287988170308	9.979770021482785e-25	8.090522640014416e9	7.887454838964872e26	2413.89507034787	7280.769624512195	7.694590314264626	0.988876698358458
0.010227573393109922	1.2044864670279682e-24	8.090522640014416e9	7.887454838964872e26	2413.89507034787	7280.769624512195	7.694590314264626	0.988876698358458
0.010266002652284837	1.4109134199646822e-24	8.090522640014416e9	7.887454838964872e26	2413.89507034787	7280.769624512195	7.694590314264626	0.988876698358458
0.010304576306215337	1.6195124614071121e-24	8.090522640014416e9	7.887454838964872e26	2413.89507034787	7280.769624512195	7.694590314264626	0.988876698358458
0.010343294897452827	1.830479720238828e-24	8.090522640014416e9	7.887454838964872e26	2413.89507034787	7280.769624512195	7.694590314264626	0.988876698358458
0.01038215897058718	2.04383602389136e-24	8.090522640014416e9	7.887454838964872e26	2413.89507034787	7280.769624512195	7.694590314264626	0.988876698358458
0.010421169072254525	2.25960236786682e-24	8.090522640014416e9	7.887454838964872e26	2413.89507034787	7280.769624512195	7.694590314264626	0.988876698358458
0.01046032575114505	2.4777999170463553e-24	8.090522640014416e9	7.887454838964872e26	2413.89507034787	7280.769624512195	7.694590314264626	0.988876698358458
0.010499629558010436	2.698456270561753e-24	8.090522640014416e9	7.887454838964872e26	2413.89507034787	7280.769624512195	7.694590314264626	0.988876698358458
0.010539081045671942	2.921621184240771e-24	8.090522640014416e9	7.887454838964872e26	2413.89507034787	7280.769624512195	7.694590314264626	0.988876698358458
0.010578680769027822	3.1473201402627978e-24	8.090522640014416e9	7.887454838964872e26	2413.89507034787	7280.769624512195	7.694590314264626	0.988876698358458
0.010618429285061504	3.3755754255618076e-24	8.090522640014416e9	7.887454838964872e26	2413.89507034787	7280.769624512195	7.694590314264626	0.988876698358458
0.01065832715284909	3.606409506922959e-24	8.090522640014416e9	7.887454838964872e26	2413.89507034787	7280.769624512195	7.694590314264626	0.988876698358458
0.010698374933567378	3.839845032382886e-24	8.090522640014416e9	7.887454838964872e26	2413.89507034787	7280.769624512195	7.694590314264626	0.988876698358458
0.010738573190501857	4.0759113545200075e-24	8.090522640014416e9	7.887454838964872e26	2413.89507034787	7280.769624512195	7.694590314264626	0.988876698358458
0.010778922489054352	4.314661044408059e-24	8.090522640014416e9	7.887454838964872e26	2413.89507034787	7280.769624512195	7.694590314264626	0.988876698358458
0.01081942339675131	4.556121300618651e-24	8.090522640014416e9	7.887454838964872e26	2413.89507034787	7280.769624512195	7.694590314264626	0.988876698358458
0.010860076483251432	4.800315961515334e-24	8.090522640014416e9	7.887454838964872e26	2413.89507034787	7280.769624512195	7.694590314264626	0.988876698358458
0.010900882320354048	5.0472690578310265e-24	8.090522640014416e9	7.887454838964872e26	2413.89507034787	7280.769624512195	7.694590314264626	0.988876698358458
0.010941841482006791	5.297004814162551e-24	8.090522640014416e9	7.887454838964872e26	2413.89507034787	7280.769624512195	7.694590314264626	0.988876698358458
0.01098295454431404	5.549550656619968e-24	8.090522640014416e9	7.887454838964872e26	2413.89507034787	7280.769624512195	7.694590314264626	0.988876698358458
0.0110242220855447	5.80494345925706e-24	8.090522640014416e9	7.887454838964872e26	2413.89507034787	7280.769624512195	7.694590314264626	0.988876698358458
0.011065644686140476	6.0632162140618285e-24	8.090522640014416e9	7.887454838964872e26	2413.89507034787	7280.769624512195	7.694590314264626	0.988876698358458
0.011107222928724167	6.324401872686551e-24	8.090522640014416e9	7.887454838964872e26	2413.89507034787	7280.769624512195	7.694590314264626	0.988876698358458
0.011148957398107551	6.588533764024857e-24	8.090522640014416e9	7.887454838964872e26	2413.89507034787	7280.769624512195	7.694590314264626	0.988876698358458
0.011190848681299964	6.855645598521734e-24	8.090522640014416e9	7.887454838964872e26	2413.89507034787	7280.769624512195	7.694590314264626	0.988876698358458
0.011232897367516209	7.125771472528137e-24	8.090522640014416e9	7.887454838964872e26	2413.89507034787	7280.769624512195	7.694590314264626	0.988876698358458
0.011275104048185184	7.398945872709543e-24	8.090522640014416e9	7.887454838964872e26	2413.89507034787	7280.769624512195	7.694590314264626	0.988876698358458
0.011317469316957861	7.675203680500394e-24	8.090522640014416e9	7.887454838964872e26	2413.89507034787	7280.769624512195	7.694590314264626	0.988876698358458
0.011359993769715984	7.954580176613706e-24	8.090522640014416e9	7.887454838964872e26	2413.89507034787	7280.769624512195	7.694590314264626	0.988876698358458
0.011402678004580134	8.237111045597697e-24	8.090522640014416e9	7.887454838964872e26	2413.89507034787	7280.769624512195	7.694590314264626	0.988876698358458
0.011445522621918286	8.522832380447295e-24	8.090522640014416e9	7.887454838964872e26	2413.89507034787	7280.769624512195	7.694590314264626	0.988876698358458
0.01148852822435438	8.811780687268143e-24	8.090522640014416e9	7.887454838964872e26	2413.89507034787	7280.769624512195	7.694590314264626	0.988876698358458
0.011531695416776485	9.103992889990637e-24	8.090522640014416e9	7.887454838964872e26	2413.89507034787	7280.769624512195	7.694590314264626	0.988876698358458
0.01157502480634567	9.3995063351423e-24	8.090522640014416e9	7.887454838964872e26	2413.89507034787	7280.769624512195	7.694590314264626	0.988876698358458
0.011618517002504178	9.698358796669528e-24	8.090522640014416e9	7.887454838964872e26	2413.89507034787	7280.769624512195	7.694590314264626	0.988876698358458
0.011662172616984361	1.0000588480819223e-23	8.090522640014416e9	7.887454838964872e26	2413.89507034787	7280.769624512195	7.694590314264626	0.988876698358458
0.011705992263816927	1.030623403107096e-23	8.090522640014416e9	7.887454838964872e26	2413.89507034787	7280.769624512195	7.694590314264626	0.988876698358458
0.011749976559339934	1.0615334533130449e-23	8.090522640014416e9	7.887454838964872e26	2413.89507034787	7280.769624512195	7.694590314264626	0.988876698358458
0.011794126122207139	1.0927929519974892e-23	8.090522640014416e9	7.887454838964872e26	2413.89507034787	7280.769624512195	7.694590314264626	0.988876698358458
0.01183844157339684	1.1244058976959268e-23	8.090522640014416e9	7.887454838964872e26	2413.89507034787	7280.769624512195	7.694590314264626	0.988876698358458
0.011882923536220755	1.1563763346980555e-23	8.090522640014416e9	7.887454838964872e26	2413.89507034787	7280.769624512195	7.694590314264626	0.988876698358458
0.011927572636332448	1.1887083535697414e-23	8.090522640014416e9	7.887454838964872e26	2413.89507034787	7280.769624512195	7.694590314264626	0.988876698358458
0.011972389501736517	1.2214060916814532e-23	8.090522640014416e9	7.887454838964872e26	2413.89507034787	7280.769624512195	7.694590314264626	0.988876698358458
0.012017374762797047	1.25447373374215e-23	8.090522640014416e9	7.887454838964872e26	2413.89507034787	7280.769624512195	7.694590314264626	0.988876698358458
0.012062529052246855	1.2879155123398048e-23	8.090522640014416e9	7.887454838964872e26	2413.89507034787	7280.769624512195	7.694590314264626	0.988876698358458
0.012107853005196048	1.3217357084875516e-23	8.090522640014416e9	7.887454838964872e26	2413.89507034787	7280.769624512195	7.694590314264626	0.988876698358458
0.012153347259141117	1.3559386521764185e-23	8.090522640014416e9	7.887454838964872e26	2413.89507034787	7280.769624512195	7.694590314264626	0.988876698358458
0.01219901245397403	1.3905287229343328e-23	8.090522640014416e9	7.887454838964872e26	2413.89507034787	7280.769624512195	7.694590314264626	0.988876698358458
0.012244849231990906	1.42551035039114e-23	8.090522640014416e9	7.887454838964872e26	2413.89507034787	7280.769624512195	7.694590314264626	0.988876698358458
0.012290858237901433	1.4608880148506054e-23	8.090522640014416e9	7.887454838964872e26	2413.89507034787	7280.769624512195	7.694590314264626	0.988876698358458
0.012337040118837548	1.4966662478683262e-23	8.090522640014416e9	7.887454838964872e26	2413.89507034787	7280.769624512195	7.694590314264626	0.988876698358458
0.012383395524362921	1.5328496328368145e-23	8.090522640014416e9	7.887454838964872e26	2413.89507034787	7280.769624512195	7.694590314264626	0.988876698358458
0.012429925106481717	1.569442805576657e-23	8.090522640014416e9	7.887454838964872e26	2413.89507034787	7280.769624512195	7.694590314264626	0.988876698358458
0.012476629519648145	1.6064504549349956e-23	8.090522640014416e9	7.887454838964872e26	2413.89507034787	7280.769624512195	7.694590314264626	0.988876698358458
0.012523509420775326	1.643877323390249e-23	8.090522640014416e9	7.887454838964872e26	2413.89507034787	7280.769624512195	7.694590314264626	0.988876698358458
0.01257056546924467	1.6817282076640898e-23	8.090522640014416e9	7.887454838964872e26	2413.89507034787	7280.769624512195	7.694590314264626	0.988876698358458
0.012617798326915317	1.7200079593404238e-23	8.090522640014416e9	7.887454838964872e26	2413.89507034787	7280.769624512195	7.694590314264626	0.988876698358458
0.012665208658133082	1.758721485490974e-23	8.090522640014416e9	7.887454838964872e26	2413.89507034787	7280.769624512195	7.694590314264626	0.988876698358458
0.012712797129740204	1.7978737493086154e-23	8.090522640014416e9	7.887454838964872e26	2413.89507034787	7280.769624512195	7.694590314264626	0.988876698358458
0.012760564411084332	1.8374697707472567e-23	8.090522640014416e9	7.887454838964872e26	2413.89507034787	7280.769624512195	7.694590314264626	0.988876698358458
0.01280851117402833	1.8775146271696573e-23	8.090522640014416e9	7.887454838964872e26	2413.89507034787	7280.769624512195	7.694590314264626	0.988876698358458
0.012856638092959324	1.9180134540019615e-23	8.090522640014416e9	7.887454838964872e26	2413.89507034787	7280.769624512195	7.694590314264626	0.988876698358458
0.012904945844798609	1.9589714453963522e-23	8.090522640014416e9	7.887454838964872e26	2413.89507034787	7280.769624512195	7.694590314264626	0.988876698358458
0.012953435109010794	2.0003938549005997e-23	8.090522640014416e9	7.887454838964872e26	2413.89507034787	7280.769624512195	7.694590314264626	0.988876698358458
0.01300210656761352	2.0422859961356557e-23	8.090522640014416e9	7.887454838964872e26	2413.89507034787	7280.769624512195	7.694590314264626	0.988876698358458
0.01305096090518721	2.0846532434809856e-23	8.090522640014416e9	7.887454838964872e26	2413.89507034787	7280.769624512195	7.694590314264626	0.988876698358458
0.013099998808884334	2.127501032767224e-23	8.090522640014416e9	7.887454838964872e26	2413.89507034787	7280.769624512195	7.694590314264626	0.988876698358458
0.013149220968439491	2.1708348619774017e-23	8.090522640014416e9	7.887454838964872e26	2413.89507034787	7280.769624512195	7.694590314264626	0.988876698358458
0.013198628076178682	2.2146602919554105e-23	8.090522640014416e9	7.887454838964872e26	2413.89507034787	7280.769624512195	7.694590314264626	0.988876698358458
0.013248220827029483	2.2589829471232982e-23	8.090522640014416e9	7.887454838964872e26	2413.89507034787	7280.769624512195	7.694590314264626	0.988876698358458
0.013297999918530446	2.303808516205982e-23	8.090522640014416e9	7.887454838964872e26	2413.89507034787	7280.769624512195	7.694590314264626	0.988876698358458
0.013347966050841063	2.3491427269171418e-23	8.090522640014416e9	7.887454838964872e26	2413.89507034787	7280.769624512195	7.694590314264626	0.988876698358458
0.013398119926751776	2.3949903842925497e-23	8.090522640014416e9	7.887454838964872e26	2413.89507034787	7280.769624512195	7.694590314264626	0.988876698358458
0.013448462251693492	2.4413567922725882e-23	8.090522640014416e9	7.887454838964872e26	2413.89507034787	7280.769624512195	7.694590314264626	0.988876698358458
0.013498993733747931	2.4882478203435022e-23	8.090522640014416e9	7.887454838964872e26	2413.89507034787	7280.769624512195	7.694590314264626	0.988876698358458
0.013549715083657156	2.5356694044025764e-23	8.090522640014416e9	7.887454838964872e26	2413.89507034787	7280.769624512195	7.694590314264626	0.988876698358458
0.013600627014834001	2.5836275475099427e-23	8.090522640014416e9	7.887454838964872e26	2413.89507034787	7280.769624512195	7.694590314264626	0.988876698358458
0.013651730243371667	2.632128320648112e-23	8.090522640014416e9	7.887454838964872e26	2413.89507034787	7280.769624512195	7.694590314264626	0.988876698358458
0.013703025488054243	2.681177863490899e-23	8.090522640014416e9	7.887454838964872e26	2413.89507034787	7280.769624512195	7.694590314264626	0.988876698358458
0.013754513470366417	2.730782385180271e-23	8.090522640014416e9	7.887454838964872e26	2413.89507034787	7280.769624512195	7.694590314264626	0.988876698358458
0.013806194914503803	2.780948165112527e-23	8.090522640014416e9	7.887454838964872e26	2413.89507034787	7280.769624512195	7.694590314264626	0.988876698358458
0.01385807054738328	2.831681553733345e-23	8.090522640014416e9	7.887454838964872e26	2413.89507034787	7280.769624512195	7.694590314264626	0.988876698358458
0.013910141098652837	2.882988973341319e-23	8.090522640014416e9	7.887454838964872e26	2413.89507034787	7280.769624512195	7.694590314264626	0.988876698358458
0.013962407300702279	2.934876918901378e-23	8.090522640014416e9	7.887454838964872e26	2413.89507034787	7280.769624512195	7.694590314264626	0.988876698358458
0.014014869888673107	2.987351958866569e-23	8.090522640014416e9	7.887454838964872e26	2413.89507034787	7280.769624512195	7.694590314264626	0.988876698358458
0.014067529600469171	3.040420736009862e-23	8.090522640014416e9	7.887454838964872e26	2413.89507034787	7280.769624512195	7.694590314264626	0.988876698358458
0.0141203871767669	3.094089968264897e-23	8.090522640014416e9	7.887454838964872e26	2413.89507034787	7280.769624512195	7.694590314264626	0.988876698358458
0.014173443361025759	3.1483664495764575e-23	8.090522640014416e9	7.887454838964872e26	2413.89507034787	7280.769624512195	7.694590314264626	0.988876698358458
0.014226698899498697	3.2032570507604857e-23	8.090522640014416e9	7.887454838964872e26	2413.89507034787	7280.769624512195	7.694590314264626	0.988876698358458
0.014280154541242648	3.258768720373862e-23	8.090522640014416e9	7.887454838964872e26	2413.89507034787	7280.769624512195	7.694590314264626	0.988876698358458
0.014333811038129059	3.314908485594014e-23	8.090522640014416e9	7.887454838964872e26	2413.89507034787	7280.769624512195	7.694590314264626	0.988876698358458
0.014387669144854487	3.3716834531085035e-23	8.090522640014416e9	7.887454838964872e26	2413.89507034787	7280.769624512195	7.694590314264626	0.988876698358458
0.014441729618951208	3.429100810014642e-23	8.090522640014416e9	7.887454838964872e26	2413.89507034787	7280.769624512195	7.694590314264626	0.988876698358458
0.014495993220797795	3.487167824729229e-23	8.090522640014416e9	7.887454838964872e26	2413.89507034787	7280.769624512195	7.694590314264626	0.988876698358458
0.01455046071362995	3.545891847908792e-23	8.090522640014416e9	7.887454838964872e26	2413.89507034787	7280.769624512195	7.694590314264626	0.988876698358458
0.014605132863551154	3.605280313380012e-23	8.090522640014416e9	7.887454838964872e26	2413.89507034787	7280.769624512195	7.694590314264626	0.988876698358458
0.01466001043954345	3.665340739080776e-23	8.090522640014411e9	7.887454838964867e26	2413.8950703478686	7280.76962451219	7.694590314264625	0.988876698358458
0.014715094213478275	3.726080728011886e-23	8.090522640014411e9	7.887454838964867e26	2413.8950703478686	7280.76962451219	7.694590314264625	0.988876698358458
0.0147703849601273	3.787507969199487e-23	8.090522640014411e9	7.887454838964867e26	2413.8950703478686	7280.76962451219	7.694590314264625	0.988876698358458
0.014825883457173344	3.849630238668448e-23	8.090522640014411e9	7.887454838964867e26	2413.8950703478686	7280.76962451219	7.694590314264625	0.988876698358458
0.01488159048522133	3.912455400426728e-23	8.090522640014411e9	7.887454838964867e26	2413.8950703478686	7280.76962451219	7.694590314264625	0.988876698358458
0.014937506827809153	3.975991407460762e-23	8.090522640014411e9	7.887454838964867e26	2413.8950703478686	7280.76962451219	7.694590314264625	0.988876698358458
0.014993633271418871	4.0402463027424077e-23	8.090522640014411e9	7.887454838964867e26	2413.8950703478686	7280.76962451219	7.694590314264625	0.988876698358458
0.01504997060548766	4.10522822024698e-23	8.090522640014411e9	7.887454838964867e26	2413.8950703478686	7280.76962451219	7.694590314264625	0.988876698358458
0.015106519622418935	4.170945385982943e-23	8.090522640014411e9	7.887454838964867e26	2413.8950703478686	7280.76962451219	7.694590314264625	0.988876698358458
0.015163281117593507	4.2374061190332476e-23	8.090522640014411e9	7.887454838964867e26	2413.8950703478686	7280.76962451219	7.694590314264625	0.988876698358458
0.015220255889380757	4.3046188326084225e-23	8.090522640014411e9	7.887454838964867e26	2413.8950703478686	7280.76962451219	7.694590314264625	0.988876698358458
0.01527744473914988	4.3725920351116085e-23	8.090522640014411e9	7.887454838964867e26	2413.8950703478686	7280.76962451219	7.694590314264625	0.988876698358458
0.015334848471281175	4.441334331215662e-23	8.090522640014411e9	7.887454838964867e26	2413.8950703478686	7280.76962451219	7.694590314264625	0.988876698358458
0.015392467893177246	4.51085442295227e-23	8.090522640014411e9	7.887454838964867e26	2413.8950703478686	7280.76962451219	7.694590314264625	0.988876698358458
0.015450303815274529	4.581161110813744e-23	8.090522640014411e9	7.887454838964867e26	2413.8950703478686	7280.76962451219	7.694590314264625	0.988876698358458
0.015508357051054588	4.652263294866933e-23	8.090522640014411e9	7.887454838964867e26	2413.8950703478686	7280.76962451219	7.694590314264625	0.988876698358458
0.015566628417055568	4.7241699758799013e-23	8.090522640014411e9	7.887454838964867e26	2413.8950703478686	7280.76962451219	7.694590314264625	0.988876698358458
0.01562511873288369	4.796890256461341e-23	8.090522640014411e9	7.887454838964867e26	2413.8950703478686	7280.76962451219	7.694590314264625	0.988876698358458
0.015683828821224783	4.870433342212846e-23	8.090522640014411e9	7.887454838964867e26	2413.8950703478686	7280.76962451219	7.694590314264625	0.988876698358458
0.015742759507855843	4.944808542894265e-23	8.090522640014411e9	7.887454838964867e26	2413.8950703478686	7280.76962451219	7.694590314264625	0.988876698358458
0.015801911621656662	5.020025273602204e-23	8.090522640014411e9	7.887454838964867e26	2413.8950703478686	7280.76962451219	7.694590314264625	0.988876698358458
0.0158612859946215	5.096093055961894e-23	8.090522640014411e9	7.887454838964867e26	2413.8950703478686	7280.76962451219	7.694590314264625	0.988876698358458
0.015920883461870677	5.1730215193324115e-23	8.090522640014411e9	7.887454838964867e26	2413.8950703478686	7280.76962451219	7.694590314264625	0.988876698358458
0.01598070486166251	5.250820402025858e-23	8.090522640014411e9	7.887454838964867e26	2413.8950703478686	7280.76962451219	7.694590314264625	0.988876698358458
0.016040751035404963	5.329499552539974e-23	8.090522640014411e9	7.887454838964867e26	2413.8950703478686	7280.76962451219	7.694590314264625	0.988876698358458
0.016101022827667514	5.409068930804887e-23	8.090522640014411e9	7.887454838964867e26	2413.8950703478686	7280.76962451219	7.694590314264625	0.988876698358458
